Time (s),Waist Acceleration,Chest Acceleration,Left Ankle Acceleration,right Ankle Acceleration,EMG_magnitude_left,EMG_magnitude_right,left wrist Acceleration,right wrist Acceleration,left wrist electrodermal,right wrist electrodermal,left wrist Temperature,right wrist Temperature,VO2,Breath Frequency,Minute Ventilation,SpO2,Heart Rate,Energy expenditures (W/kg) ,Activity Code
360.0078122,9.862195302,9.838792788,9.904614808,10.13922952,0.194512913,0.146844468,9.823154506,9.823154506,9.113463206,13.94587023,31.15296987,29.88663773,8.276985768,21,13,99,74,3.576523603,3
361.0078122,9.870159717,9.861944606,10.10116561,10.41781015,0.236465963,0.16557613,9.915273696,9.915273696,9.189676485,14.03012236,31.15552798,29.88789633,8.276985768,21,13,99,74,3.576523603,3
362.0078122,9.878284179,9.900281616,10.42720972,10.8332651,0.28265014,0.187873432,10.06076746,10.06076746,9.267551209,14.11639562,31.15796286,29.88912345,8.276985768,21,13,99,74,3.576523603,3
363.0078122,9.885370739,9.954296138,10.87960059,11.31158386,0.326279076,0.211928435,10.26628358,10.26628358,9.346079043,14.20330398,31.1604976,29.89031417,8.276985768,21,13,99,74,3.576523603,3
364.0078122,9.893166555,10.02237665,11.44543827,11.78702877,0.363000493,0.235461795,10.50868477,10.50868477,9.425058897,14.29014576,31.16302203,29.89154737,8.276985768,21,13,99,74,3.576523603,3
365.0078122,9.90305911,10.09660528,12.07604273,12.26046682,0.391422275,0.255996271,10.73293563,10.73293563,9.504226074,14.37651971,31.16567313,29.89255794,8.447529036,21,13,99,74,3.576523603,3
366.0078122,9.912936496,10.15649388,12.65139082,12.72522376,0.411956126,0.271263356,10.88154667,10.88154667,9.582148757,14.4605289,31.16823659,29.8936127,8.447529036,21,13,99,74,3.576523603,3
367.0078122,9.919606778,10.17872855,13.0453973,13.11751118,0.426581837,0.280080471,10.94577741,10.94577741,9.658131996,14.54164794,31.17066477,29.89452984,8.447529036,21,13,99,74,3.576523603,3
368.0078122,9.923072631,10.16319858,13.23827815,13.39370602,0.439252445,0.283222703,10.97567126,10.97567126,9.73351088,14.62128474,31.17307786,29.89548267,8.776022685,21,13,99,75,3.576523603,3
369.0078122,9.925327639,10.13725706,13.31319811,13.58788564,0.454667425,0.283316407,11.02334933,11.02334933,9.808500447,14.700261,31.17537886,29.89626761,8.776022685,21,13,99,75,3.576523603,3
370.0078122,9.926635249,10.12551923,13.35460075,13.76322763,0.47529845,0.283542055,11.09264383,11.09264383,9.882673274,14.77814538,31.17770803,29.89705193,9.238712895,21,13,99,75,3.576523603,3
371.0078122,9.926200106,10.12757551,13.40301356,13.93660376,0.499190033,0.285963008,11.14894254,11.14894254,9.955370535,14.85420526,31.1799972,29.89788322,9.238712895,21,13,99,75,3.576523603,3
372.0078122,9.92417808,10.13052513,13.47120855,14.07630533,0.520552526,0.29052604,11.15740167,11.15740167,10.02612038,14.92786751,31.18226486,29.89855877,9.238712895,21,13,99,75,3.576523603,3
373.0078122,9.921596617,10.12975347,13.53384308,14.15563507,0.532305199,0.295291225,11.10943948,11.10943948,10.09479864,14.99873968,31.18462052,29.89908901,9.803329974,21,13,99,76,3.576523603,3
374.0078122,9.919892592,10.12872225,13.55284938,14.16269714,0.529673502,0.297848457,11.02901568,11.02901568,10.16124436,15.06666779,31.18689824,29.89947478,9.803329974,21,13,99,76,3.576523603,3
375.0078122,9.920293683,10.12917031,13.5472707,14.08792652,0.512999763,0.296938706,10.96200022,10.96200022,10.22525316,15.13118194,31.18913519,29.8998601,9.803329974,21,13,99,76,3.576523603,3
376.0078122,9.92241,10.13111396,13.5596698,13.9558246,0.488161298,0.293080921,10.94599406,10.94599406,10.28611452,15.19119072,31.19121663,29.90026433,10.43254137,21,14,99,77,3.576523603,3
377.0078122,9.923878167,10.1341553,13.58139917,13.83306805,0.463807193,0.28793967,10.97420617,10.97420617,10.34425753,15.24750081,31.19332021,29.90059409,10.43254137,21,14,99,77,3.576523603,3
378.0078122,9.923769074,10.134436,13.59151685,13.77108597,0.447159682,0.283237083,10.99733797,10.99733797,10.40163884,15.30210138,31.19535942,29.90085074,10.43254137,21,14,99,77,3.576523603,3
379.0078122,9.924603001,10.12951672,13.61501158,13.77408946,0.441129151,0.279948781,10.97209133,10.97209133,10.45691257,15.35441984,31.19730494,29.90090748,11.0876953,21,14,99,77,3.576523603,3
380.0078122,9.927688675,10.12495792,13.6778505,13.83745706,0.443840578,0.277971115,10.90346935,10.90346935,10.50880808,15.40325838,31.19918822,29.90077862,11.0876953,21,14,99,77,3.576523603,3
381.0078122,9.930148706,10.12690164,13.74408681,13.9647106,0.450108319,0.276386201,10.83711559,10.83711559,10.55730463,15.44809305,31.20106212,29.90055994,11.73233861,21,15,99,78,3.576523603,3
382.0078122,9.929166562,10.13209946,13.7554448,14.11601593,0.454194441,0.274261511,10.81276817,10.81276817,10.60249513,15.48906913,31.20295612,29.90049486,11.73233861,21,15,99,78,3.576523603,3
383.0078122,9.925570758,10.13302301,13.71330773,14.20880805,0.452695461,0.271300567,10.8290634,10.8290634,10.64427832,15.52634921,31.20481695,29.90050167,12.33511305,21,15,98,78,3.576523603,3
384.0078122,9.921908941,10.12805943,13.67167029,14.20777868,0.445747878,0.267802642,10.85791034,10.85791034,10.68308344,15.56000433,31.20658606,29.90026827,12.33511305,21,15,98,78,3.576523603,3
385.0078122,9.919381188,10.12149321,13.66436726,14.14387074,0.435772791,0.264264261,10.879548,10.879548,10.71868987,15.59005263,31.20831849,29.89993474,12.87182708,21,15,98,78,3.576523603,3
386.0078122,9.917540387,10.11814879,13.68058715,14.0548454,0.425310758,0.261163028,10.88628357,10.88628357,10.75120309,15.61659719,31.21007475,29.89967396,12.87182708,21,15,98,78,3.576523603,3
387.0078122,9.916016796,10.11983616,13.69513572,13.96990878,0.41579469,0.258755718,10.86895273,10.86895273,10.78078507,15.63931225,31.21180188,29.89934176,12.87182708,21,15,98,78,3.576523603,3
388.0078122,9.915494637,10.12375849,13.69080204,13.90652827,0.407925972,0.256921635,10.83095889,10.83095889,10.80722297,15.65781156,31.21344142,29.89900485,13.32668093,20,16,98,79,3.576523603,3
389.0078122,9.91631034,10.12465242,13.66271281,13.86299313,0.402587181,0.255441619,10.80547053,10.80547053,10.8309051,15.67329774,31.21491962,29.89855374,13.32668093,20,16,98,79,3.576523603,3
390.0078122,9.91744918,10.11987078,13.62477989,13.84507649,0.400964345,0.254658522,10.82339227,10.82339227,10.85217314,15.68645284,31.21635373,29.89817012,13.32668093,20,16,98,79,3.576523603,3
391.0078122,9.918849341,10.11316783,13.61737879,13.87289142,0.403582457,0.255555485,10.87190698,10.87190698,10.86904675,15.69511486,31.21788716,29.89768101,13.69271547,20,16,98,79,3.576523603,3
392.0078122,9.922246217,10.11491888,13.68634022,13.9509759,0.409237706,0.258581737,10.91234427,10.91234427,10.88057933,15.69807282,31.21930215,29.89718451,13.69271547,20,16,98,79,3.576523603,3
393.0078122,9.927214391,10.13386884,13.81952456,14.06424915,0.415035822,0.262210109,10.92303558,10.92303558,10.8887529,15.69744483,31.22081355,29.896662,13.69271547,20,16,98,79,3.576523603,3
394.0078122,9.929865825,10.16439328,13.92009914,14.19337499,0.417716931,0.263186219,10.90786743,10.90786743,10.89288499,15.6927862,31.2222126,29.89608784,13.69271547,20,16,98,79,3.576523603,3
395.0078122,9.928197977,10.18880073,13.89885296,14.30470951,0.415263133,0.258886961,10.88687812,10.88687812,10.89426168,15.68521905,31.22369909,29.89560291,13.97154542,20,16,98,79,3.576523603,3
396.0078122,9.924876349,10.19465891,13.78209838,14.34963566,0.407622868,0.24956297,10.88479238,10.88479238,10.89290338,15.67510707,31.22515395,29.89509276,13.97154542,20,16,98,79,3.576523603,3
397.0078122,9.922855627,10.1836342,13.67730869,14.30656516,0.396323619,0.238066206,10.91124778,10.91124778,10.88859688,15.66249515,31.22655455,29.89445563,13.97154542,20,16,98,79,3.576523603,3
398.0078122,9.922593528,10.16642415,13.65382288,14.20952252,0.383589442,0.227429293,10.95633545,10.95633545,10.8837596,15.64930243,31.22804602,29.89395682,13.97154542,20,16,98,79,3.576523603,3
399.0078122,9.923827868,10.15430659,13.69616823,14.11560502,0.371806157,0.219116428,11.00720581,11.00720581,10.8801168,15.63734476,31.22938809,29.89355601,14.17238252,19,16,98,79,3.576523603,3
400.0078122,9.92578404,10.15178064,13.74646718,14.06165331,0.363101266,0.213217234,11.05521134,11.05521134,10.87653494,15.6260824,31.2307954,29.89308598,14.17238252,19,16,98,79,3.576523603,3
401.0078122,9.926609943,10.15501602,13.75979583,14.05891757,0.358950916,0.20972139,11.08788531,11.08788531,10.87192115,15.61419332,31.23231741,29.8926741,14.17238252,19,16,98,79,3.576523603,3
402.0078122,9.925653092,10.15833234,13.73478326,14.10221031,0.359794372,0.209022848,11.0898899,11.0898899,10.86428769,15.59884435,31.23372189,29.89237464,14.17238252,19,16,98,79,3.576523603,3
403.0078122,9.92458831,10.16017328,13.70717797,14.17621086,0.364912556,0.211307866,11.06015012,11.06015012,10.85407512,15.58049781,31.23515504,29.89209517,14.3103448,19,16,98,79,3.576523603,3
404.0078122,9.924508647,10.16174891,13.70175377,14.25184959,0.372680056,0.215829223,11.01593927,11.01593927,10.84228934,15.56072044,31.23646873,29.89175347,14.3103448,19,16,98,79,3.576523603,3
405.0078122,9.924076946,10.1631268,13.69627004,14.28507171,0.381119824,0.220949173,10.96997441,10.96997441,10.82793206,15.53840361,31.23786817,29.89142137,14.3103448,19,16,98,79,3.576523603,3
406.0078122,9.92224628,10.16182028,13.66087894,14.24727844,0.388558665,0.224907467,10.92254177,10.92254177,10.81202408,15.51420249,31.23919586,29.89098568,14.3103448,19,16,98,79,3.576523603,3
407.0078122,9.920682171,10.1548664,13.61580566,14.14711414,0.394063923,0.226658731,10.8832372,10.8832372,10.79615732,15.48985432,31.24048873,29.89073758,14.40414294,19,16,98,78,3.576523603,3
408.0078122,9.92092939,10.144914,13.60186186,14.0218474,0.397416476,0.226179508,10.87050881,10.87050881,10.78045615,15.46653796,31.24180607,29.89051845,14.40414294,19,16,98,78,3.576523603,3
409.0078122,9.921079494,10.14114121,13.605495,13.92404034,0.398715409,0.224177405,10.88533749,10.88533749,10.76520698,15.44484814,31.24319817,29.89024368,14.40414294,19,16,98,78,3.576523603,3
410.0078122,9.918745576,10.14874045,13.56813295,13.8766323,0.398001201,0.221601916,10.90694971,10.90694971,10.74939976,15.42346872,31.24448539,29.89006646,14.47341499,19,16,98,78,3.576523603,3
411.0078122,9.915352898,10.1622894,13.47486496,13.84510171,0.395185053,0.219290215,10.90537821,10.90537821,10.73264965,15.4015639,31.24578179,29.88986179,14.47341499,19,16,98,78,3.576523603,3
412.0078122,9.9141331,10.17283545,13.38635167,13.79797559,0.390215842,0.217743021,10.85908308,10.85908308,10.71350734,15.37743706,31.24703061,29.88980391,14.47341499,19,16,98,78,3.576523603,3
413.0078122,9.915587355,10.17587267,13.36328293,13.75673892,0.383394811,0.217027804,10.78485066,10.78485066,10.69301016,15.35190351,31.24837533,29.88951491,14.53615447,18,16,98,78,3.576523603,3
414.0078122,9.917515271,10.17146814,13.39476668,13.7543032,0.375710639,0.216844664,10.72693908,10.72693908,10.6726146,15.32636499,31.24968985,29.88932684,14.53615447,18,16,98,78,3.576523603,3
415.0078122,9.918484239,10.16191947,13.43128318,13.79155778,0.368927479,0.216795345,10.70298109,10.70298109,10.65208129,15.3007669,31.25088924,29.88905903,14.53615447,18,16,98,78,3.576523603,3
416.0078122,9.918653521,10.15104671,13.45499379,13.85276546,0.364917455,0.216639905,10.70832421,10.70832421,10.63104258,15.27487043,31.25208812,29.88893062,14.60673235,18,16,98,78,3.576523603,3
417.0078122,9.917951671,10.14415507,13.47487422,13.92120451,0.364390974,0.216355966,10.75773004,10.75773004,10.60898906,15.24848556,31.25342006,29.8889034,14.60673235,18,16,98,78,3.576523603,3
418.0078122,9.916497437,10.14540744,13.48719976,13.97776488,0.366188622,0.216073581,10.86247857,10.86247857,10.58611265,15.22156385,31.254666,29.88876777,14.60673235,18,16,98,78,3.576523603,3
419.0078122,9.915768757,10.15314614,13.48398242,14.00623475,0.368109511,0.216069015,10.99215841,10.99215841,10.56272576,15.19410614,31.25594866,29.88876145,14.69488678,18,16,98,78,3.576523603,3
420.0078122,9.916667416,10.16224856,13.47460015,13.99896786,0.368677941,0.216737422,11.10225852,11.10225852,10.53880874,15.16623655,31.25715259,29.88867393,14.69488678,18,16,98,78,3.576523603,3
421.0078122,9.917652588,10.17103981,13.47332246,13.96585053,0.368197925,0.218315447,11.17573528,11.17573528,10.5135666,15.13718261,31.25842444,29.88856737,14.69488678,18,16,98,78,3.576523603,3
422.0078122,9.91669865,10.18003112,13.47928067,13.93182257,0.368219701,0.220509453,11.21324432,11.21324432,10.48770421,15.10739637,31.25958673,29.88846291,14.69488678,18,16,98,78,3.576523603,3
423.0078122,9.913918924,10.18717057,13.47915072,13.9192862,0.370030317,0.222524325,11.20507674,11.20507674,10.46194136,15.07766883,31.2607106,29.88841124,14.80577199,18,16,98,78,3.576523603,3
424.0078122,9.910793666,10.18965663,13.46674586,13.93430619,0.373415203,0.223607844,11.13671228,11.13671228,10.43605971,15.0481054,31.26168257,29.88832605,14.80577199,18,16,98,78,3.576523603,3
425.0078122,9.908185406,10.18809933,13.45640487,13.9576711,0.376654872,0.223609647,11.02113301,11.02113301,10.40985452,15.01854168,31.26260409,29.888178,14.80577199,18,16,98,78,3.576523603,3
426.0078122,9.906395458,10.18673336,13.46815868,13.96551335,0.377770919,0.223021772,10.91207736,10.91207736,10.3835018,14.98894001,31.26355782,29.88808206,14.80577199,18,16,98,78,3.576523603,3
427.0078122,9.905593442,10.19005443,13.49997877,13.95814411,0.376063584,0.222518367,10.86630722,10.86630722,10.35698992,14.95928814,31.26454064,29.88795251,14.9408266,18,17,98,78,3.576523603,3
428.0078122,9.905520111,10.1979299,13.52468142,13.93857324,0.372516909,0.22241257,10.89118974,10.89118974,10.33060679,14.92978049,31.26556463,29.88776064,14.9408266,18,17,98,78,3.576523603,3
429.0078122,9.905884308,10.20387702,13.52069528,13.89624002,0.368815334,0.222533302,10.94221821,10.94221821,10.30420984,14.90027028,31.26667967,29.88762206,14.9408266,18,17,98,78,3.576523603,3
430.0078122,9.906752158,10.20217786,13.49438128,13.84099881,0.366035168,0.222627832,10.96615799,10.96615799,10.27769714,14.87073745,31.26764633,29.88753531,15.09897962,18,17,98,78,3.576523603,3
431.0078122,9.9078515,10.19572287,13.46021296,13.81040089,0.364173878,0.222840395,10.94252251,10.94252251,10.25135867,14.84133701,31.26867364,29.88721168,15.09897962,18,17,98,78,3.576523603,3
432.0078122,9.908665012,10.19051014,13.42335925,13.8182359,0.362744537,0.223704128,10.89945483,10.89945483,10.22506253,14.81193868,31.2696756,29.88701593,15.09897962,18,17,98,78,3.576523603,3
433.0078122,9.909952503,10.18679632,13.38677677,13.82826448,0.361759784,0.225618799,10.89387267,10.89387267,10.19891213,14.78270075,31.27051694,29.88684602,15.27766366,18,17,98,78,3.576523603,3
434.0078122,9.912901903,10.18282102,13.35064773,13.80919056,0.362105305,0.228363807,10.96376717,10.96376717,10.17296467,14.75359529,31.27143769,29.88672508,15.27766366,18,17,98,78,3.576523603,3
435.0078122,9.916073283,10.18106023,13.31660828,13.79227611,0.364767923,0.231149333,11.09224027,11.09224027,10.14692306,14.72459003,31.27219841,29.88648598,15.27766366,18,17,98,78,3.576523603,3
436.0078122,9.916113502,10.18621833,13.30670562,13.83531591,0.369507175,0.233096101,11.22085451,11.22085451,10.1208494,14.69580184,31.27318191,29.88619539,15.27766366,18,17,98,78,3.576523603,3
437.0078122,9.912255413,10.1998287,13.34812377,13.93515463,0.374331749,0.233597845,11.29918351,11.29918351,10.09474159,14.66701364,31.2740236,29.88594739,15.27766366,18,17,98,78,3.576523603,3
438.0078122,9.908098964,10.21626759,13.42408771,14.01942221,0.376570567,0.232331136,11.31284373,11.31284373,10.06723193,14.63709593,31.27490951,29.88562835,15.27766366,18,17,98,78,3.576523603,3
439.0078122,9.907859431,10.22503312,13.47650455,14.03369395,0.37471096,0.229228493,11.27061603,11.27061603,10.03905365,14.60639336,31.27582989,29.88532547,15.47327211,18,17,98,78,3.576523603,3
440.0078122,9.911791794,10.21938055,13.47359113,13.991098,0.36955347,0.224645617,11.18799693,11.18799693,10.01172615,14.5761168,31.27669971,29.88523646,15.47327211,18,17,98,78,3.576523603,3
441.0078122,9.916579842,10.20267898,13.44246538,13.93741959,0.363746578,0.219445269,11.08660414,11.08660414,9.985245257,14.54653991,31.27751979,29.88499986,15.47327211,18,17,98,78,3.576523603,3
442.0078122,9.919160153,10.18616771,13.41920487,13.90721694,0.360221217,0.214777948,10.99298477,10.99298477,9.959263231,14.51759812,31.27832093,29.88480467,15.47327211,18,17,98,78,3.576523603,3
443.0078122,9.919070368,10.17903459,13.40330701,13.90115238,0.360595195,0.211710051,10.92554288,10.92554288,9.933689336,14.48909267,31.27919361,29.88434801,15.68100804,17,17,98,77,3.576523603,3
444.0078122,9.917709383,10.18149705,13.38944502,13.89487075,0.364317537,0.210861433,10.8847571,10.8847571,9.90826518,14.4609279,31.28007509,29.88385223,15.68100804,17,17,98,77,3.576523603,3
445.0078122,9.916229233,10.18722526,13.39943648,13.87109267,0.368905611,0.212085912,10.86335844,10.86335844,9.882950634,14.43286538,31.28087347,29.88349269,15.68100804,17,17,98,77,3.576523603,3
446.0078122,9.914973131,10.18924193,13.44448751,13.83197254,0.371243522,0.214410354,10.86075117,10.86075117,9.8578083,14.40496142,31.28165002,29.88308249,15.89439205,17,17,98,77,3.576523603,3
447.0078122,9.91434291,10.18548135,13.49392389,13.79820893,0.369284696,0.216510956,10.87984376,10.87984376,9.832786624,14.37719701,31.28249515,29.88267545,15.89439205,17,17,98,77,3.576523603,3
448.0078122,9.915073025,10.18027616,13.51148191,13.79110163,0.363095574,0.217514606,10.91657315,10.91657315,9.807942822,14.34964811,31.28334605,29.88241436,15.89439205,17,17,98,77,3.576523603,3
449.0078122,9.917318792,10.17722203,13.49843713,13.79648544,0.354604388,0.217429729,10.96060137,10.96060137,9.783255435,14.32207463,31.28411072,29.88209041,16.1048829,17,17,98,77,3.576523603,3
450.0078122,9.919724523,10.17246263,13.48259651,13.77965789,0.34635962,0.216805475,11.0040909,11.0040909,9.758392377,14.29433218,31.28497255,29.88176728,16.1048829,17,17,98,77,3.576523603,3
451.0078122,9.920574837,10.16238187,13.48453747,13.74510531,0.340155612,0.216026708,11.04548381,11.04548381,9.733597771,14.2666387,31.2855255,29.88146739,16.1048829,17,17,98,77,3.576523603,3
452.0078122,9.919735017,10.15395314,13.50732737,13.74244756,0.336461439,0.214985046,11.08681559,11.08681559,9.708985531,14.239134,31.28621766,29.88122004,16.30203423,17,18,98,77,3.576523603,3
453.0078122,9.918212619,10.15671516,13.54182636,13.80147075,0.334682864,0.213316101,11.12746572,11.12746572,9.684370995,14.21176417,31.28672247,29.88091034,16.30203423,17,18,98,77,3.576523603,3
454.0078122,9.916818667,10.16873276,13.57273377,13.89435375,0.333881859,0.210820177,11.15338999,11.15338999,9.659982835,14.18463061,31.28741491,29.8806854,16.30203423,17,18,98,77,3.576523603,3
455.0078122,9.916168785,10.17879605,13.58827975,13.9806355,0.333172793,0.20767799,11.14014056,11.14014056,9.63612159,14.15811781,31.28805102,29.88036805,16.47437745,16,18,98,77,3.576523603,3
456.0078122,9.91652675,10.17890643,13.59204774,14.04718428,0.331721395,0.204412976,11.07850621,11.07850621,9.61299565,14.13230065,31.288547,29.87994604,16.47437745,16,18,98,77,3.576523603,3
457.0078122,9.917421214,10.17117456,13.59912621,14.0804711,0.328992763,0.201700709,10.98748873,10.98748873,9.590263054,14.10686903,31.28919329,29.87956664,16.47437745,16,18,98,77,3.576523603,3
458.0078122,9.918575545,10.16317549,13.61312506,14.06065227,0.325466089,0.200134076,10.89906801,10.89906801,9.567595265,14.08156937,31.28983097,29.8792276,16.47437745,16,18,98,77,3.576523603,3
459.0078122,9.92052018,10.15869722,13.62285638,14.01062584,0.322906975,0.200091077,10.83854342,10.83854342,9.544926815,14.05637563,31.29043661,29.87872945,16.47437745,16,18,98,77,3.576523603,3
460.0078122,9.923300866,10.15719775,13.62391689,13.98434906,0.323369416,0.201751788,10.81031891,10.81031891,9.522289825,14.03128088,31.29089638,29.87822812,16.61089477,16,18,98,77,3.576523603,3
461.0078122,9.925979695,10.15766108,13.61822209,13.98982383,0.32761019,0.205072572,10.79797091,10.79797091,9.4997448,14.00635763,31.2915013,29.87780537,16.61089477,16,18,98,77,3.576523603,3
462.0078122,9.927906423,10.15693028,13.60016655,13.98247464,0.334410422,0.209563733,10.78781017,10.78781017,9.477237717,13.98161815,31.29209302,29.87736615,16.61089477,16,18,98,77,3.576523603,3
463.0078122,9.929058051,10.15151691,13.57137262,13.93765375,0.341316006,0.214107542,10.79219198,10.79219198,9.454770719,13.95706327,31.29273238,29.87690971,16.61089477,16,18,98,77,3.576523603,3
464.0078122,9.929834052,10.14563242,13.55969729,13.88676153,0.34609085,0.217262797,10.84299338,10.84299338,9.432409948,13.93272633,31.29321289,29.87641286,16.70268056,16,18,98,77,3.576523603,3
465.0078122,9.930343639,10.14951912,13.58898945,13.88177631,0.34779861,0.217976345,10.95485387,10.95485387,9.409911371,13.90850339,31.29372089,29.87582319,16.70268056,16,18,98,77,3.576523603,3
466.0078122,9.928879879,10.16593275,13.63505779,13.94069473,0.347018686,0.216218444,11.09160792,11.09160792,9.387444083,13.88443025,31.29414092,29.87528671,16.70268056,16,18,98,77,3.576523603,3
467.0078122,9.92360371,10.1847062,13.65235833,14.02455088,0.344954106,0.212917867,11.17864525,11.17864525,9.365162813,13.86059616,31.29447487,29.87464787,16.70268056,16,18,98,77,3.576523603,3
468.0078122,9.916459799,10.19461991,13.63336133,14.07598296,0.342247908,0.209321109,11.16223648,11.16223648,9.342841109,13.83678538,31.29495108,29.87405178,16.70268056,16,18,98,77,3.576523603,3
469.0078122,9.912523572,10.19416508,13.60838068,14.07780527,0.338705466,0.206351095,11.05819655,11.05819655,9.320065424,13.81232054,31.29538969,29.87343485,16.74430627,15,18,98,77,3.576523603,3
470.0078122,9.91426058,10.18856858,13.60431398,14.0578465,0.334105562,0.204364503,10.93378638,10.93378638,9.2973813,13.78778257,31.29576195,29.87281987,16.74430627,15,18,98,77,3.576523603,3
471.0078122,9.918766346,10.18382024,13.61970123,14.0474867,0.328980339,0.20326263,10.84661251,10.84661251,9.275157773,13.76383552,31.29620585,29.87232038,16.74430627,15,18,98,77,3.576523603,3
472.0078122,9.922161623,10.18235785,13.62228179,14.04725435,0.324484581,0.202785698,10.81210617,10.81210617,9.253211718,13.74057197,31.29658181,29.87164544,16.74430627,15,18,98,77,3.576523603,3
473.0078122,9.923830345,10.18087831,13.57599423,14.03586864,0.321693913,0.202872788,10.81970916,10.81970916,9.231403204,13.71778555,31.29690112,29.87105999,16.74430627,15,18,98,77,3.576523603,3
474.0078122,9.925026861,10.17654258,13.48831944,14.00647484,0.321056716,0.203830175,10.85313017,10.85313017,9.20972706,13.69533938,31.2972196,29.87047869,16.73453034,15,18,98,77,3.576523603,3
475.0078122,9.925558177,10.17318656,13.41334782,13.97609551,0.322219784,0.206029003,10.88805438,10.88805438,9.18803663,13.67318901,31.29758934,29.86975959,16.73453034,15,18,98,77,3.576523603,3
476.0078122,9.924549485,10.17579133,13.4003698,13.9595898,0.324213161,0.209315782,10.90196069,10.90196069,9.166401732,13.65131921,31.2979478,29.86906083,16.73453034,15,18,98,77,3.576523603,3
477.0078122,9.922918763,10.18115081,13.44858016,13.95227266,0.326034433,0.212739632,10.90458728,10.90458728,9.144858551,13.6296253,31.29821248,29.86810196,16.67625275,14,18,98,77,3.576523603,3
478.0078122,9.922090362,10.1815258,13.51151354,13.94751271,0.327307567,0.214972619,10.93218074,10.93218074,9.123495481,13.60811127,31.29847785,29.86730215,16.67625275,14,18,98,77,3.576523603,3
479.0078122,9.921550746,10.17728355,13.53956543,13.94548777,0.328293963,0.21507671,11.00048353,11.00048353,9.102721924,13.58724975,31.29866054,29.86639115,16.67625275,14,18,98,77,3.576523603,3
480.0078122,9.920507624,10.17616555,13.52127806,13.93378794,0.32922485,0.213043228,11.08536695,11.08536695,9.083148686,13.56743017,31.29891526,29.86554778,16.67625275,14,18,98,77,3.576523603,3
481.0078122,9.919725097,10.18147574,13.49036169,13.89740712,0.329823063,0.209650475,11.14980602,11.14980602,9.064007529,13.54817593,31.29907367,29.86467982,16.57586425,14,18,98,77,3.576523603,3
482.0078122,9.91962347,10.1883368,13.48306724,13.85619925,0.329672078,0.205915591,11.17323308,11.17323308,9.044688302,13.52901882,31.29916941,29.86378933,16.57586425,14,18,98,77,3.576523603,3
483.0078122,9.919034796,10.19046347,13.49187667,13.85419515,0.328837815,0.202751738,11.15611252,11.15611252,9.025305095,13.50994383,31.299294,29.86277228,16.57586425,14,18,98,77,3.576523603,3
484.0078122,9.917467046,10.18744605,13.49409087,13.90531531,0.32780705,0.201007553,11.10902298,11.10902298,9.006051344,13.49102212,31.29943729,29.86169475,16.57586425,14,18,98,77,3.576523603,3
485.0078122,9.916998933,10.18329339,13.50351641,13.97628694,0.326867956,0.201398694,11.0492496,11.0492496,8.987022891,13.47228119,31.29953631,29.86077895,16.44226856,14,18,98,77,3.576523603,3
486.0078122,9.919844959,10.18038222,13.54622452,14.02471597,0.325832043,0.203977045,11.00208475,11.00208475,8.968245866,13.45377779,31.29972696,29.85979256,16.44226856,14,18,98,77,3.576523603,3
487.0078122,9.924619572,10.17851233,13.6104248,14.03411632,0.324371691,0.207619713,10.98205527,10.98205527,8.94964491,13.4354867,31.29986092,29.85868713,16.44226856,14,18,98,77,3.576523603,3
488.0078122,9.9275264,10.17659807,13.65159396,14.01517947,0.322429416,0.21034683,10.97219741,10.97219741,8.930950712,13.41723416,31.30000052,29.85774872,16.44226856,14,18,98,77,3.576523603,3
489.0078122,9.927256175,10.17337283,13.64106413,13.99039564,0.320387862,0.210495021,10.94543199,10.94543199,8.912335642,13.39909006,31.29994807,29.85679019,16.44226856,14,18,98,77,3.576523603,3
490.0078122,9.92638134,10.16974132,13.59741988,13.97819365,0.319140748,0.207775917,10.90511771,10.90511771,8.893983015,13.38123792,31.29999643,29.85582201,16.28582762,14,18,98,77,3.576523603,3
491.0078122,9.927095526,10.1698169,13.55449148,13.9848835,0.319865789,0.203269692,10.88003424,10.88003424,8.87570024,13.36356589,31.29999644,29.85490096,16.28582762,14,18,98,77,3.576523603,3
492.0078122,9.927870954,10.17622133,13.51424957,14.00927162,0.323138321,0.198549391,10.87941303,10.87941303,8.857663568,13.34616287,31.29990352,29.85394479,16.28582762,14,18,98,77,3.576523603,3
493.0078122,9.926253103,10.1853368,13.47024094,14.04773642,0.327908631,0.194811474,10.8787935,10.8787935,8.839793842,13.32901887,31.29983412,29.85301825,16.28582762,14,18,98,77,3.576523603,3
494.0078122,9.923204338,10.19035902,13.45115073,14.08545403,0.331737317,0.192683551,10.85851149,10.85851149,8.822734561,13.31249094,31.29980827,29.85203219,16.28582762,14,18,98,77,3.576523603,3
495.0078122,9.922389273,10.18871509,13.49040188,14.09997928,0.332631403,0.192519377,10.83500304,10.83500304,8.806923727,13.29688236,31.29976196,29.85111174,16.11735966,14,18,99,77,3.576523603,3
496.0078122,9.925597381,10.1841968,13.57338906,14.08707099,0.330817244,0.194597145,10.84276388,10.84276388,8.791705871,13.28175473,31.29958879,29.85022732,16.11735966,14,18,99,77,3.576523603,3
497.0078122,9.930394158,10.1820652,13.64744722,14.06147834,0.328472346,0.198854463,10.8985168,10.8985168,8.776627929,13.26684293,31.29943622,29.84926707,16.11735966,14,18,99,77,3.576523603,3
498.0078122,9.932617384,10.18331358,13.66781929,14.02856834,0.327602409,0.204360864,10.98671556,10.98671556,8.761899539,13.25221245,31.29921866,29.84838764,16.11735966,14,18,99,77,3.576523603,3
499.0078122,9.930621925,10.18476147,13.62224375,13.97532588,0.328260839,0.209216338,11.06651095,11.06651095,8.747560088,13.23784079,31.29899769,29.84746753,16.11735966,14,18,99,77,3.576523603,3
500.0078122,9.92687276,10.18462491,13.53461521,13.89596946,0.328745833,0.211401404,11.09719089,11.09719089,8.733723384,13.22371881,31.2986812,29.84651723,16.11735966,14,18,99,77,3.576523603,3
501.0078122,9.925474946,10.18439388,13.45410849,13.81563287,0.327290481,0.210142652,11.07310347,11.07310347,8.720232968,13.20990072,31.29845273,29.84559994,15.94721269,14,18,99,77,3.576523603,3
502.0078122,9.928256385,10.18510169,13.42375796,13.77636756,0.323595805,0.206574024,11.02332728,11.02332728,8.707055069,13.19634546,31.29799025,29.84462481,15.94721269,14,18,99,77,3.576523603,3
503.0078122,9.933586636,10.18575965,13.45185932,13.80355604,0.319120524,0.202997662,10.97552583,10.97552583,8.694161045,13.1829613,31.29756554,29.84377631,15.94721269,14,18,99,77,3.576523603,3
504.0078122,9.938470342,10.18514194,13.50851762,13.88432706,0.316224717,0.201354424,10.94246747,10.94246747,8.681613058,13.16981914,31.29719799,29.84287781,15.94721269,14,18,99,77,3.576523603,3
505.0078122,9.940600889,10.18292541,13.54404665,13.96474669,0.316987831,0.202188275,10.92929151,10.92929151,8.669402966,13.15688774,31.29674892,29.84187917,15.94721269,14,18,99,77,3.576523603,3
506.0078122,9.939031523,10.17948792,13.51731266,13.98524977,0.322123383,0.204695158,10.92819403,10.92819403,8.657520512,13.14429068,31.29607664,29.84098007,15.94721269,14,18,99,77,3.576523603,3
507.0078122,9.934568966,10.17518505,13.42738594,13.94018066,0.330317342,0.207646839,10.92770432,10.92770432,8.64645931,13.13262242,31.29548227,29.84005464,15.78441961,14,18,99,76,3.576523603,3
508.0078122,9.929643113,10.16951717,13.33095827,13.87110019,0.338450743,0.210256698,10.93600431,10.93600431,8.636100548,13.12176608,31.29487044,29.83904973,15.78441961,14,18,99,76,3.576523603,3
509.0078122,9.92696584,10.16260846,13.30715744,13.80543808,0.343125813,0.21226873,10.96454701,10.96454701,8.626097176,13.11123876,31.29421115,29.83814214,15.78441961,14,18,99,76,3.576523603,3
510.0078122,9.927695144,10.15800814,13.38114605,13.75453672,0.342712796,0.213528049,10.99685633,10.99685633,8.616408113,13.10083159,31.29342146,29.83721498,15.78441961,14,18,99,76,3.576523603,3
511.0078122,9.930341161,10.16063269,13.49791185,13.73549555,0.33816153,0.213851407,11.00573756,11.00573756,8.606938392,13.09056712,31.29276286,29.83621616,15.63600939,14,18,99,76,3.576523603,3
512.0078122,9.93178546,10.17051148,13.58537114,13.74641289,0.331902686,0.213322233,10.98871863,10.98871863,8.597695007,13.08051141,31.29194285,29.83514713,15.63600939,14,18,99,76,3.576523603,3
513.0078122,9.930370647,10.18171994,13.61884998,13.75864303,0.32614754,0.212377595,10.9633483,10.9633483,8.588645245,13.07062316,31.29102754,29.83421316,15.63600939,14,18,99,76,3.576523603,3
514.0078122,9.927765026,10.19032631,13.61321678,13.74851822,0.322101775,0.211481497,10.94080665,10.94080665,8.579781742,13.06086961,31.29013315,29.83318182,15.63600939,14,18,99,76,3.576523603,3
515.0078122,9.926704433,10.19863593,13.58308448,13.72125477,0.320124799,0.210904751,10.92143023,10.92143023,8.570700103,13.05092426,31.28911409,29.83208649,15.50662694,14,18,99,76,3.576523603,3
516.0078122,9.927240594,10.20675351,13.53410715,13.70726981,0.320028052,0.210882412,10.90506165,10.90506165,8.561418123,13.04082179,31.28817176,29.83101849,15.50662694,14,18,99,76,3.576523603,3
517.0078122,9.927178111,10.20819757,13.47695762,13.73132424,0.321252018,0.211729796,10.89647358,10.89647358,8.552758428,13.03122022,31.28715991,29.82996773,15.50662694,14,18,99,76,3.576523603,3
518.0078122,9.926013755,10.19958712,13.43119387,13.78142731,0.323213799,0.213512509,10.90556928,10.90556928,8.544646948,13.02209475,31.28608206,29.82887142,15.50662694,14,18,99,76,3.576523603,3
519.0078122,9.925499854,10.18587608,13.41374974,13.81616975,0.325796316,0.215561607,10.93372466,10.93372466,8.536859327,13.01325585,31.28503304,29.82784337,15.39860748,14,18,99,76,3.576523603,3
520.0078122,9.926131462,10.1723726,13.42256291,13.80731345,0.329414804,0.216597238,10.95823056,10.95823056,8.529306702,13.00463961,31.28398378,29.82676764,15.39860748,14,18,99,76,3.576523603,3
521.0078122,9.926215073,10.16050888,13.43472554,13.77025826,0.334349425,0.215719897,10.95388129,10.95388129,8.521878311,12.99619935,31.28282319,29.82561579,15.39860748,14,18,99,76,3.576523603,3
522.0078122,9.925340335,10.15310145,13.43007268,13.74240101,0.339965738,0.21339541,10.93224469,10.93224469,8.5146405,12.98783839,31.28167037,29.82450374,15.39860748,14,18,99,76,3.576523603,3
523.0078122,9.925419714,10.15415726,13.41822491,13.7326932,0.344807268,0.211234084,10.93264317,10.93264317,8.50764319,12.97970252,31.28055728,29.82336925,15.31252244,14,18,99,76,3.576523603,3
524.0078122,9.927057194,10.16174661,13.42416429,13.71506996,0.34760257,0.210589365,10.97472187,10.97472187,8.50145731,12.97244334,31.27943307,29.82219151,15.31252244,14,18,99,76,3.576523603,3
525.0078122,9.927893621,10.16880378,13.4500364,13.68134529,0.348032758,0.211358343,11.04138256,11.04138256,8.49647342,12.96615589,31.2781354,29.82100418,15.31252244,14,18,99,76,3.576523603,3
526.0078122,9.925798786,10.17264066,13.4840665,13.66747383,0.346379069,0.212120308,11.09715231,11.09715231,8.491669167,12.9602635,31.27693034,29.81980146,15.31252244,14,18,99,76,3.576523603,3
527.0078122,9.922193362,10.17685753,13.53215652,13.70791181,0.342716315,0.211344407,11.10962418,11.10962418,8.48666056,12.95435538,31.2757561,29.81861513,15.31252244,14,18,99,76,3.576523603,3
528.0078122,9.920478874,10.18268506,13.59282534,13.78922552,0.336910398,0.208532931,11.07026828,11.07026828,8.481603574,12.94838677,31.27443991,29.81727199,15.24801175,15,18,99,76,3.576523603,3
529.0078122,9.921814496,10.18655824,13.63066276,13.86814685,0.329378422,0.204449964,10.99873247,10.99873247,8.476542258,12.94240592,31.2731937,29.81593869,15.24801175,15,18,99,76,3.576523603,3
530.0078122,9.924530618,10.18805462,13.62473279,13.92420396,0.321419446,0.200440051,10.92349993,10.92349993,8.471529377,12.93652592,31.27204049,29.81449575,15.24801175,15,18,99,76,3.576523603,3
531.0078122,9.926977083,10.19151771,13.59243758,13.96189532,0.314620346,0.197517826,10.86978958,10.86978958,8.467079011,12.93106586,31.27082891,29.81309208,15.24801175,15,18,99,76,3.576523603,3
532.0078122,9.929201035,10.19695058,13.5438206,13.9708225,0.310273748,0.196018706,10.85745033,10.85745033,8.46331222,12.9260631,31.26957939,29.8117356,15.20455335,15,18,99,76,3.576523603,3
533.0078122,9.931570542,10.19764717,13.47531396,13.93336992,0.309207527,0.195788097,10.89263248,10.89263248,8.459667686,12.92125709,31.26838881,29.81023178,15.20455335,15,18,99,76,3.576523603,3
534.0078122,9.932457721,10.18967254,13.40482693,13.86499069,0.311678052,0.196450047,10.95912797,10.95912797,8.455917732,12.91646667,31.26717645,29.8086712,15.20455335,15,18,99,76,3.576523603,3
535.0078122,9.929684569,10.17767301,13.36455943,13.81072518,0.316868987,0.197427603,11.01755269,11.01755269,8.452175152,12.911712,31.26583192,29.80737517,15.20455335,15,18,99,76,3.576523603,3
536.0078122,9.924708314,10.16908746,13.35934235,13.80182197,0.322623975,0.198036855,11.02643746,11.02643746,8.448525835,12.90706667,31.26458825,29.80584519,15.20455335,15,18,99,76,3.576523603,3
537.0078122,9.922156541,10.16603794,13.35943818,13.8287598,0.326258405,0.197925495,10.97881246,10.97881246,8.445181452,12.90262334,31.2634351,29.80441099,15.1818058,15,18,99,76,3.576523603,3
538.0078122,9.924291054,10.16581272,13.34343554,13.86103232,0.326161756,0.19743175,10.90898294,10.90898294,8.442052765,12.89824588,31.26226594,29.80303324,15.1818058,15,18,99,76,3.576523603,3
539.0078122,9.928558671,10.1662054,13.32396424,13.88409668,0.322849077,0.197285765,10.86373647,10.86373647,8.43876186,12.89378772,31.26100143,29.80165211,15.1818058,15,18,99,76,3.576523603,3
540.0078122,9.931233022,10.1660564,13.31887763,13.89721982,0.318475926,0.197833915,10.87405316,10.87405316,8.434627293,12.88871305,31.25982085,29.80027134,15.1818058,15,18,99,76,3.576523603,3
541.0078122,9.931418121,10.16413805,13.32171357,13.89047987,0.315181763,0.198568306,10.94012282,10.94012282,8.430827669,12.88372949,31.25876742,29.79887211,15.1818058,15,18,99,76,3.576523603,3
542.0078122,9.930589546,10.16113537,13.31307421,13.85864354,0.313613061,0.1984274,11.03227127,11.03227127,8.428629177,12.87977335,31.25788395,29.79742859,15.17933212,15,18,99,76,3.576523603,3
543.0078122,9.929651226,10.15999399,13.29191112,13.82286013,0.312772066,0.196591139,11.10543419,11.10543419,8.427186819,12.8765794,31.25690948,29.79605892,15.17933212,15,18,99,76,3.576523603,3
544.0078122,9.92887237,10.16313936,13.28599639,13.80774245,0.31117066,0.193107137,11.12030532,11.12030532,8.425822438,12.87358252,31.25601691,29.79476387,15.17933212,15,18,99,76,3.576523603,3
545.0078122,9.929587711,10.17004669,13.31756554,13.8115542,0.308215248,0.188976073,11.06924294,11.06924294,8.424546079,12.87065726,31.25515266,29.79334023,15.19581133,15,18,99,76,3.576523603,3
546.0078122,9.932472197,10.17795294,13.37018459,13.81835124,0.304724134,0.185741414,10.98624911,10.98624911,8.423311888,12.86778701,31.25415967,29.79191621,15.19581133,15,18,99,76,3.576523603,3
547.0078122,9.935493293,10.18605617,13.41480593,13.82245278,0.30241294,0.184920932,10.92183844,10.92183844,8.422252776,12.86497834,31.25303022,29.79066897,15.19581133,15,18,99,76,3.576523603,3
548.0078122,9.936578842,10.19587768,13.44500367,13.82707084,0.303010836,0.187494137,10.90191701,10.90191701,8.421415155,12.86230008,31.25202683,29.78927809,15.19581133,15,18,99,76,3.576523603,3
549.0078122,9.936467879,10.20430772,13.46630687,13.8312188,0.307715309,0.193529625,10.91365566,10.91365566,8.420700356,12.85972675,31.25110649,29.78779677,15.22813041,15,18,99,76,3.576523603,3
550.0078122,9.936421734,10.20460227,13.47654771,13.82791228,0.316971001,0.202001561,10.9298676,10.9298676,8.420034472,12.85720202,31.25020558,29.78626773,15.22813041,15,18,99,76,3.576523603,3
551.0078122,9.934812365,10.1981377,13.46896751,13.8173501,0.329916706,0.210877501,10.93433709,10.93433709,8.419439183,12.85466196,31.24924037,29.78486015,15.22813041,15,18,99,76,3.576523603,3
552.0078122,9.929576207,10.19354289,13.45025476,13.81575059,0.343519044,0.217603173,10.92632973,10.92632973,8.418940959,12.8520846,31.24838771,29.78344825,15.22813041,15,18,99,76,3.576523603,3
553.0078122,9.923511944,10.19293132,13.44720849,13.82946845,0.352906507,0.220014127,10.91758941,10.91758941,8.418499407,12.8495251,31.24763686,29.7821462,15.22813041,15,18,99,76,3.576523603,3
554.0078122,9.922056887,10.18982709,13.47276991,13.83214272,0.354001401,0.217361214,10.92538239,10.92538239,8.417604917,12.84662456,31.2468107,29.78083807,15.27087892,15,18,99,76,3.576523603,3
555.0078122,9.925840161,10.18133027,13.49993081,13.80620905,0.346622533,0.210801124,10.95879872,10.95879872,8.415831244,12.84301144,31.24600322,29.77938903,15.27087892,15,18,99,76,3.576523603,3
556.0078122,9.930672196,10.17356027,13.50366485,13.78261655,0.334782802,0.202856757,11.01132842,11.01132842,8.414006769,12.83919574,31.24521419,29.77803942,15.27087892,15,18,99,76,3.576523603,3
557.0078122,9.933639051,10.17283949,13.49785067,13.79935435,0.323595838,0.19602792,11.06332792,11.06332792,8.412620341,12.83561009,31.24452705,29.77671727,15.27087892,15,18,99,76,3.576523603,3
558.0078122,9.935096038,10.1794466,13.50712916,13.85535461,0.316019377,0.1916281,11.08694789,11.08694789,8.411434836,12.83218521,31.24374215,29.77547415,15.27087892,15,18,99,76,3.576523603,3
559.0078122,9.936440248,10.18954186,13.53482872,13.92713935,0.311952277,0.189538545,11.06165416,11.06165416,8.410235279,12.82879171,31.24298522,29.77433062,15.31666086,15,18,99,76,3.576523603,3
560.0078122,9.937727734,10.19657749,13.56308911,13.98941604,0.30967842,0.188953452,10.99243228,10.99243228,8.40884088,12.82533668,31.24222557,29.7731103,15.31666086,15,18,99,76,3.576523603,3
561.0078122,9.937525427,10.19526871,13.56960539,14.01329086,0.307677702,0.189228601,10.90384359,10.90384359,8.407314868,12.82179068,31.24137939,29.77196911,15.31666086,15,18,99,76,3.576523603,3
562.0078122,9.935595928,10.18847826,13.5446119,13.9817646,0.305533829,0.190183316,10.81982704,10.81982704,8.40563351,12.81808072,31.2407071,29.77078497,15.31666086,15,18,99,76,3.576523603,3
563.0078122,9.933859821,10.18666954,13.494639,13.91094124,0.303854183,0.191931222,10.75695421,10.75695421,8.403790693,12.81421848,31.23993744,29.76954543,15.35732058,16,18,99,76,3.576523603,3
564.0078122,9.933257069,10.19687877,13.43623509,13.83563146,0.303644496,0.194598326,10.7272533,10.7272533,8.401724214,12.8101789,31.23916449,29.76836764,15.35732058,16,18,99,76,3.576523603,3
565.0078122,9.932274053,10.21351193,13.38890394,13.77534542,0.305641839,0.198051129,10.73756271,10.73756271,8.399425762,12.80591748,31.23841066,29.76724315,15.35732058,16,18,99,76,3.576523603,3
566.0078122,9.930432011,10.22410296,13.36756791,13.72853907,0.31000052,0.201712228,10.78856373,10.78856373,8.396906017,12.80142819,31.23789512,29.76610988,15.35732058,16,18,99,76,3.576523603,3
567.0078122,9.929441213,10.22173767,13.36345285,13.69185626,0.316346929,0.204741846,10.87087909,10.87087909,8.393793151,12.79623438,31.23715613,29.7648858,15.38578048,16,18,99,76,3.576523603,3
568.0078122,9.928906647,10.20856706,13.34139737,13.66458551,0.323858736,0.206671348,10.95511232,10.95511232,8.38990369,12.7903087,31.23640784,29.76366582,15.38578048,16,18,99,76,3.576523603,3
569.0078122,9.926457174,10.192004,13.28901178,13.64180174,0.331227572,0.207933191,10.99511616,10.99511616,8.385649376,12.78415051,31.23576471,29.7624282,15.38578048,16,18,99,76,3.576523603,3
570.0078122,9.923375481,10.18080905,13.24658914,13.61909223,0.3368563,0.209514798,10.95977088,10.95977088,8.381157215,12.77797395,31.23504932,29.76112182,15.39788018,16,18,99,76,3.576523603,3
571.0078122,9.923351479,10.18026417,13.25835167,13.59871073,0.339344321,0.21178482,10.86702336,10.86702336,8.376471514,12.77174181,31.23432628,29.75989395,15.39788018,16,18,99,76,3.576523603,3
572.0078122,9.926156676,10.18714781,13.32267432,13.5855518,0.338096522,0.213744924,10.7707018,10.7707018,8.371576789,12.76534139,31.23359653,29.75865129,15.39788018,16,18,99,76,3.576523603,3
573.0078122,9.928807993,10.19206977,13.40202796,13.5836716,0.333574409,0.213784449,10.70685508,10.70685508,8.36640345,12.75877269,31.23294468,29.75733367,15.39788018,16,18,99,76,3.576523603,3
574.0078122,9.930405976,10.18935528,13.45430967,13.60120518,0.327156955,0.211340671,10.6707672,10.6707672,8.36095146,12.75199367,31.23219478,29.75617093,15.39353085,16,19,99,76,3.576523603,3
575.0078122,9.931082369,10.18241476,13.45734659,13.65182072,0.320651447,0.207683309,10.64915273,10.64915273,8.355116873,12.74500657,31.23144198,29.7550683,15.39353085,16,19,99,76,3.576523603,3
576.0078122,9.92939617,10.17791281,13.42287166,13.73143259,0.315587531,0.205017805,10.64688081,10.64688081,8.348815479,12.73768132,31.23068728,29.75379893,15.39353085,16,19,99,76,3.576523603,3
577.0078122,9.924687532,10.17710822,13.38572022,13.79692695,0.312629355,0.204852794,10.6698467,10.6698467,8.341799428,12.72982937,31.22984805,29.752628,15.39353085,16,19,99,76,3.576523603,3
578.0078122,9.920441378,10.17506781,13.37223283,13.8010557,0.311458938,0.20694785,10.70986048,10.70986048,8.334325435,12.72166658,31.22910227,29.75140916,15.37670159,16,19,99,76,3.576523603,3
579.0078122,9.921345252,10.16826301,13.38209643,13.74839121,0.311155631,0.209381559,10.75971762,10.75971762,8.3267315,12.71344231,31.22825066,29.75014565,15.37670159,16,19,99,76,3.576523603,3
580.0078122,9.926886656,10.16027167,13.40049293,13.69284253,0.310768922,0.209690718,10.81939383,10.81939383,8.319192733,12.70522895,31.2274419,29.74895432,15.37670159,16,19,99,76,3.576523603,3
581.0078122,9.932209436,10.1567566,13.41414642,13.67828519,0.309765019,0.206569038,10.88489699,10.88489699,8.311515526,12.69694593,31.22667512,29.74785734,15.37670159,16,19,99,76,3.576523603,3
582.0078122,9.934902999,10.15785089,13.41535905,13.69955322,0.308170722,0.200954432,10.9454844,10.9454844,8.303527183,12.68848738,31.22583594,29.74668002,15.37670159,16,19,99,76,3.576523603,3
583.0078122,9.936464278,10.15981152,13.40315407,13.72383441,0.30636014,0.195481825,10.9871807,10.9871807,8.295151595,12.67974744,31.22494977,29.74549628,15.35416643,16,19,99,76,3.576523603,3
584.0078122,9.938000811,10.16172517,13.38755759,13.73281447,0.304602347,0.192657583,10.99930131,10.99930131,8.286074569,12.67029195,31.22425273,29.74425649,15.35416643,16,19,99,76,3.576523603,3
585.0078122,9.938691164,10.16782218,13.39528175,13.74324961,0.302733046,0.193324103,10.98597445,10.98597445,8.275775606,12.65994651,31.22352782,29.74310932,15.35416643,16,19,99,76,3.576523603,3
586.0078122,9.938246792,10.18102847,13.44839612,13.78301978,0.300238539,0.196314549,10.96464209,10.96464209,8.265297756,12.64936728,31.22286148,29.74196281,15.33339898,17,19,99,75,3.576523603,3
587.0078122,9.937645804,10.19511846,13.52613269,13.84738306,0.296817918,0.199354753,10.94706777,10.94706777,8.255162656,12.63897977,31.22213119,29.74075806,15.33339898,17,19,99,75,3.576523603,3
588.0078122,9.937391229,10.20177505,13.58233034,13.90151827,0.293007026,0.200580326,10.9326425,10.9326425,8.245241333,12.62876198,31.22150053,29.73968102,15.33339898,17,19,99,75,3.576523603,3
589.0078122,9.937125299,10.20235539,13.600265,13.92022764,0.290236887,0.199822092,10.92326331,10.92326331,8.235332479,12.61870731,31.22059791,29.7384344,15.33339898,17,19,99,75,3.576523603,3
590.0078122,9.936828728,10.20193806,13.59142748,13.90259448,0.290151669,0.198806343,10.9228164,10.9228164,8.225337607,12.60861904,31.21975999,29.73748855,15.32032514,17,19,99,75,3.576523603,3
591.0078122,9.936978654,10.19874164,13.55890069,13.85985304,0.293782592,0.200129477,10.91759884,10.91759884,8.214840148,12.59819518,31.2189235,29.73626726,15.32032514,17,19,99,75,3.576523603,3
592.0078122,9.937594464,10.18801196,13.51000551,13.80767971,0.30122439,0.205749125,10.8848427,10.8848427,8.203657195,12.58733638,31.21800517,29.7349422,15.32032514,17,19,99,75,3.576523603,3
593.0078122,9.938498742,10.17115561,13.48682984,13.75772575,0.311719689,0.21578581,10.82250152,10.82250152,8.192509661,12.57645576,31.21726595,29.73388148,15.32032514,17,19,99,75,3.576523603,3
594.0078122,9.940065955,10.15615896,13.53173314,13.70924641,0.323666268,0.228000463,10.75164443,10.75164443,8.181635034,12.56576403,31.21649616,29.73286404,15.31770062,17,19,99,75,3.576523603,3
595.0078122,9.941927489,10.14903626,13.61506807,13.66507347,0.334599514,0.238306349,10.70064158,10.70064158,8.170906474,12.55534663,31.21572874,29.73160942,15.31770062,17,19,99,75,3.576523603,3
596.0078122,9.942222065,10.14783571,13.64000327,13.64493251,0.341759323,0.242604814,10.69483046,10.69483046,8.160306713,12.54515446,31.21487317,29.73055905,15.32464988,17,19,99,76,3.576523603,3
597.0078122,9.939641524,10.14730083,13.55348977,13.66426441,0.343411703,0.239206956,10.73797458,10.73797458,8.149682613,12.53501994,31.21399212,29.72955521,15.32464988,17,19,99,76,3.576523603,3
598.0078122,9.935047758,10.14654169,13.42254728,13.71753516,0.339894058,0.229959729,10.7937768,10.7937768,8.138957571,12.52495954,31.21311625,29.72842323,15.32464988,17,19,99,76,3.576523603,3
599.0078122,9.931136961,10.14983575,13.3563547,13.78378981,0.333424706,0.218977321,10.80286959,10.80286959,8.128272989,12.51476433,31.21239048,29.72732801,15.32464988,17,19,99,76,3.576523603,3
600.0078122,9.930286096,10.16112551,13.38166434,13.83411492,0.326595766,0.209828243,10.73444713,10.73444713,8.117559019,12.5045418,31.21151533,29.72610297,15.33747869,17,19,99,76,3.576523603,3
601.0078122,9.93169811,10.17794332,13.43636123,13.85330076,0.320898239,0.203574829,10.62274589,10.62274589,8.106592356,12.49419126,31.21067817,29.72487452,15.33747869,17,19,99,76,3.576523603,3
602.0078122,9.932631714,10.19187,13.45576761,13.85585568,0.316486968,0.199134538,10.54693145,10.54693145,8.094719567,12.48331022,31.20970334,29.7237253,15.33747869,17,19,99,76,3.576523603,3
603.0078122,9.932573468,10.19762756,13.43366725,13.86178181,0.313081334,0.195160563,10.57226287,10.57226287,8.082658014,12.47217304,31.20879987,29.7224773,15.33747869,17,19,99,76,3.576523603,3
604.0078122,9.93305311,10.19879886,13.41122363,13.87023847,0.310830611,0.191417018,10.70525024,10.70525024,8.07103082,12.4612255,31.20798795,29.72124616,15.35142231,17,19,99,76,3.576523603,3
605.0078122,9.933967474,10.20119735,13.41971411,13.86251815,0.310262353,0.188634457,10.89282009,10.89282009,8.059699189,12.45052729,31.20702982,29.72016635,15.35142231,17,19,99,76,3.576523603,3
606.0078122,9.933111504,10.20382291,13.44393263,13.82119479,0.311515595,0.187527249,11.06088726,11.06088726,8.048497658,12.43996897,31.20631003,29.71901968,15.35142231,17,19,99,76,3.576523603,3
607.0078122,9.929638629,10.20107105,13.45322305,13.7579421,0.313728446,0.188116714,11.1564859,11.1564859,8.037346998,12.42951122,31.20561053,29.71792971,15.35142231,17,19,99,76,3.576523603,3
608.0078122,9.926566922,10.19426564,13.454424,13.72311555,0.315270209,0.189836416,11.15733242,11.15733242,8.026250635,12.41911961,31.20488067,29.71686544,15.35142231,17,19,99,76,3.576523603,3
609.0078122,9.927866253,10.19255898,13.4787505,13.75801912,0.314765485,0.192139933,11.07124548,11.07124548,8.015224245,12.40878559,31.20398728,29.71577495,15.36268199,18,20,99,76,3.576523603,3
610.0078122,9.933065617,10.19800927,13.52249591,13.83539142,0.31209443,0.194931639,10.94598358,10.94598358,8.004171258,12.3984247,31.20311142,29.71471369,15.36268199,18,20,99,76,3.576523603,3
611.0078122,9.937927537,10.20189483,13.54551842,13.88444414,0.308491711,0.19825178,10.85013673,10.85013673,7.993110294,12.38807878,31.20228316,29.71368187,15.36268199,18,20,99,76,3.576523603,3
612.0078122,9.939406162,10.19994222,13.52437312,13.87321309,0.305601896,0.201585626,10.82126276,10.82126276,7.982133605,12.3778633,31.20138852,29.71248256,15.36268199,18,20,99,76,3.576523603,3
613.0078122,9.937000262,10.19748054,13.47702167,13.83237448,0.304275831,0.203751274,10.8434242,10.8434242,7.97113096,12.36766054,31.20051448,29.7112968,15.37003539,18,20,99,76,3.576523603,3
614.0078122,9.93198183,10.19764886,13.4434532,13.80630395,0.304126348,0.203761399,10.87509633,10.87509633,7.960099517,12.3574157,31.19971374,29.71017726,15.37003539,18,20,99,76,3.576523603,3
615.0078122,9.927558841,10.1962327,13.44957377,13.80771911,0.304147435,0.201757997,10.88739343,10.88739343,7.949025074,12.34714148,31.19890185,29.70912318,15.37003539,18,20,99,76,3.576523603,3
616.0078122,9.927508988,10.19014,13.48711932,13.82421278,0.303646001,0.198888427,10.87915522,10.87915522,7.937959109,12.33690834,31.19802865,29.70801379,15.37548217,18,20,99,76,3.576523603,3
617.0078122,9.932269707,10.18404118,13.53117853,13.84496844,0.302491627,0.19620052,10.86305782,10.86305782,7.927180431,12.32703832,31.19715865,29.70696671,15.37548217,18,20,99,76,3.576523603,3
618.0078122,9.937638401,10.18444098,13.56378891,13.85973878,0.300657301,0.193799302,10.8479342,10.8479342,7.916632244,12.31748887,31.19629273,29.70581514,15.37548217,18,20,99,76,3.576523603,3
619.0078122,9.939631589,10.19032799,13.58068398,13.86138802,0.297980679,0.191211951,10.84060122,10.84060122,7.90627178,12.30806505,31.19551536,29.70460355,15.38372028,18,20,99,76,3.576523603,3
620.0078122,9.938975077,10.19491732,13.59454426,13.86565383,0.294694828,0.188476215,10.85422733,10.85422733,7.896063449,12.29874789,31.19473404,29.70339699,15.38372028,18,20,99,76,3.576523603,3
621.0078122,9.938002768,10.19555244,13.62254724,13.89184253,0.29208787,0.186600023,10.90658555,10.90658555,7.885827594,12.28939163,31.1939279,29.7021969,15.38372028,18,20,99,76,3.576523603,3
622.0078122,9.935802327,10.19633694,13.66269773,13.92506897,0.292263663,0.186816885,10.99793206,10.99793206,7.875551386,12.27998815,31.19304657,29.70108838,15.38372028,18,20,99,76,3.576523603,3
623.0078122,9.930856819,10.20057991,13.69827656,13.93316883,0.29683778,0.189488159,11.08492879,11.08492879,7.865269479,12.270605,31.19217683,29.69987347,15.38372028,18,20,99,76,3.576523603,3
624.0078122,9.926134168,10.20644291,13.7161128,13.903463,0.305462026,0.193750641,11.109377,11.109377,7.855007947,12.26126797,31.19139358,29.69878573,15.4006178,18,20,99,76,3.576523603,3
625.0078122,9.926401067,10.20963816,13.70577267,13.83868203,0.315425957,0.198046685,11.06207673,11.06207673,7.844769222,12.25198536,31.19068639,29.69764853,15.4006178,18,20,99,76,3.576523603,3
626.0078122,9.931265719,10.20644364,13.66599461,13.75444563,0.322965564,0.2009312,10.98570154,10.98570154,7.834528404,12.24266819,31.18988756,29.69646525,15.4006178,18,20,99,76,3.576523603,3
627.0078122,9.935602665,10.19627037,13.61725357,13.69176732,0.32551624,0.201667386,10.92616633,10.92616633,7.824333314,12.23334394,31.18901801,29.69533024,15.4006178,18,20,99,76,3.576523603,3
628.0078122,9.936401524,10.18354339,13.57995455,13.68734075,0.323140112,0.200419259,10.90688646,10.90688646,7.814180269,12.22398488,31.188257,29.69412997,15.4006178,18,20,99,76,3.576523603,3
629.0078122,9.934954006,10.17644392,13.55245429,13.73498764,0.317993187,0.197935398,10.93077702,10.93077702,7.804091956,12.21465095,31.18731356,29.69292919,15.43113814,18,20,99,76,3.576523603,3
630.0078122,9.933365668,10.18062171,13.52397395,13.79936603,0.312545308,0.194924325,10.98240618,10.98240618,7.794055852,12.2053656,31.1864814,29.69183498,15.43113814,18,20,99,76,3.576523603,3
631.0078122,9.932238513,10.19223846,13.49445615,13.84839492,0.30822277,0.191714402,11.03204608,11.03204608,7.784100199,12.19611361,31.18569575,29.69080681,15.47732471,18,20,99,76,3.576523603,3
632.0078122,9.931119146,10.20106167,13.4794631,13.86827387,0.30528473,0.18853039,11.05168847,11.05168847,7.774256884,12.18689415,31.18484187,29.68976096,15.47732471,18,20,99,76,3.576523603,3
633.0078122,9.929846256,10.20166345,13.49000513,13.86537592,0.303430805,0.185932745,11.02949964,11.02949964,7.764457428,12.17767545,31.18398336,29.6886704,15.47732471,18,20,99,76,3.576523603,3
634.0078122,9.929320185,10.19753212,13.5156946,13.85676179,0.302309556,0.184723983,10.97298226,10.97298226,7.754627049,12.16845045,31.18312015,29.68754588,15.53693552,17,20,99,76,3.576523603,3
635.0078122,9.930392292,10.19413565,13.54469762,13.85348176,0.301602927,0.185292857,10.90668637,10.90668637,7.744847882,12.15915568,31.18225213,29.6863672,15.53693552,17,20,99,76,3.576523603,3
636.0078122,9.932790304,10.19310791,13.58165455,13.85725268,0.300864349,0.18706799,10.86221364,10.86221364,7.735130934,12.14984717,31.18137924,29.68528186,15.53693552,17,20,99,76,3.576523603,3
637.0078122,9.935382068,10.19359183,13.62662601,13.87448874,0.299506373,0.188663198,10.85694632,10.85694632,7.725371978,12.14044704,31.18052394,29.68419667,15.60315424,17,20,99,76,3.576523603,3
638.0078122,9.936185333,10.19405973,13.65470767,13.91401806,0.297168727,0.188702186,10.87741832,10.87741832,7.7155861,12.13095619,31.17973819,29.68305143,15.60315424,17,20,99,76,3.576523603,3
639.0078122,9.933935667,10.1929059,13.64563136,13.96913409,0.294188514,0.186711724,10.89277816,10.89277816,7.705813842,12.12135251,31.17895931,29.68205335,15.60315424,17,20,99,76,3.576523603,3
640.0078122,9.930253042,10.19071987,13.62013137,14.02358394,0.291557826,0.183393834,10.88928097,10.88928097,7.695852635,12.11158702,31.178227,29.6809107,15.66553526,17,20,99,76,3.576523603,3
641.0078122,9.927577721,10.18964116,13.61123244,14.06512315,0.290306041,0.180121633,10.87789891,10.87789891,7.685808521,12.10172378,31.17726165,29.67978128,15.66553526,17,20,99,76,3.576523603,3
642.0078122,9.926438631,10.1890232,13.61633955,14.07806543,0.290934138,0.178146931,10.8655817,10.8655817,7.675839125,12.09183575,31.17639039,29.67868751,15.66553526,17,20,99,76,3.576523603,3
643.0078122,9.92700395,10.18592185,13.6101321,14.04993623,0.29326344,0.178074233,10.84415377,10.84415377,7.665946761,12.08195202,31.17557135,29.67765875,15.66553526,17,20,99,76,3.576523603,3
644.0078122,9.930115573,10.18180224,13.5883678,13.99401925,0.296450906,0.179751052,10.81297427,10.81297427,7.656049071,12.07196672,31.17459748,29.67666396,15.71202463,17,20,99,76,3.576523603,3
645.0078122,9.934762096,10.18345946,13.57281436,13.94151827,0.299130063,0.18245601,10.78814197,10.78814197,7.646118072,12.06186107,31.17387605,29.67565105,15.71202463,17,20,99,76,3.576523603,3
646.0078122,9.937714085,10.19226404,13.58221881,13.91531984,0.300031118,0.18524554,10.78722393,10.78722393,7.636108021,12.05163802,31.17307384,29.67456908,15.71202463,17,20,99,76,3.576523603,3
647.0078122,9.937306104,10.19978014,13.61034357,13.92082929,0.298882093,0.187312593,10.81901171,10.81901171,7.626086136,12.0413006,31.17226423,29.67350438,15.71202463,17,20,99,76,3.576523603,3
648.0078122,9.935751865,10.20145413,13.6336431,13.94895588,0.296688457,0.188232719,10.87996725,10.87996725,7.61604237,12.03099267,31.17133597,29.67240287,15.73160973,16,20,99,76,3.576523603,3
649.0078122,9.936040132,10.20319292,13.63834249,13.97974827,0.294978171,0.18806971,10.95106738,10.95106738,7.605979331,12.02055912,31.17072734,29.67143316,15.73160973,16,20,99,76,3.576523603,3
650.0078122,9.937252384,10.20794107,13.62223025,13.9917493,0.294668676,0.187315724,11.00842358,11.00842358,7.595877288,12.01001546,31.16998278,29.67035634,15.73160973,16,20,99,76,3.576523603,3
651.0078122,9.935470164,10.21078941,13.58388182,13.97771871,0.295497703,0.186596395,11.03865335,11.03865335,7.585750947,11.99936368,31.16929155,29.66935857,15.73160973,16,20,99,76,3.576523603,3
652.0078122,9.929738238,10.20975531,13.53822161,13.94984609,0.296321567,0.186232979,11.03426656,11.03426656,7.575631519,11.98865476,31.16854091,29.66846229,15.73160973,16,20,99,76,3.576523603,3
653.0078122,9.924534892,10.20728771,13.51159544,13.92399628,0.296024673,0.186057166,10.99298628,10.99298628,7.56539144,11.97782745,31.16777392,29.66743883,15.71696131,16,20,99,76,3.576523603,3
654.0078122,9.924397879,10.20304186,13.50727704,13.90464558,0.294336823,0.185731116,10.93802852,10.93802852,7.555115486,11.96687076,31.16696304,29.66629316,15.71696131,16,20,99,76,3.576523603,3
655.0078122,9.928592132,10.19548613,13.51085104,13.8908372,0.291931709,0.18522227,10.90607907,10.90607907,7.544845841,11.95570659,31.16628586,29.66537011,15.71696131,16,20,99,76,3.576523603,3
656.0078122,9.933672003,10.18643383,13.51625624,13.88595458,0.289828239,0.184853616,10.90230746,10.90230746,7.534578943,11.94439838,31.16555765,29.66445035,15.71696131,16,20,99,76,3.576523603,3
657.0078122,9.938030608,10.17836603,13.51903168,13.89217434,0.288703088,0.18491389,10.89697545,10.89697545,7.52453557,11.93333761,31.16481189,29.6634074,15.71696131,16,20,99,76,3.576523603,3
658.0078122,9.941427533,10.17252413,13.50985537,13.90356804,0.28863419,0.18538755,10.86806831,10.86806831,7.514622272,11.9225203,31.16405793,29.66231656,15.66639825,16,20,99,76,3.576523603,3
659.0078122,9.943168188,10.17209493,13.48815144,13.91007713,0.289325303,0.186122798,10.8259093,10.8259093,7.504690436,11.91174892,31.16326758,29.66115026,15.66639825,16,20,99,76,3.576523603,3
660.0078122,9.942943908,10.1798073,13.46134179,13.90081225,0.290499892,0.187095377,10.79390069,10.79390069,7.494760078,11.9009172,31.16266278,29.66022136,15.66639825,16,20,99,76,3.576523603,3
661.0078122,9.941941705,10.19056393,13.43406477,13.86979578,0.29206502,0.188360316,10.77792509,10.77792509,7.484800803,11.89000495,31.16201071,29.65927995,15.58464769,16,20,99,76,3.576523603,3
662.0078122,9.94149142,10.19521721,13.41024401,13.82821406,0.293919169,0.189855637,10.76213039,10.76213039,7.474846973,11.8790434,31.16134589,29.65835067,15.58464769,16,20,99,76,3.576523603,3
663.0078122,9.940926483,10.19147067,13.39449714,13.80043597,0.295712841,0.191429861,10.73588436,10.73588436,7.464915203,11.86806608,31.16064785,29.65746502,15.58464769,16,20,99,76,3.576523603,3
664.0078122,9.938089203,10.18368584,13.39160833,13.8070415,0.296852931,0.19295973,10.71502158,10.71502158,7.455045428,11.85713065,31.15991814,29.65651035,15.58464769,16,20,99,76,3.576523603,3
665.0078122,9.932479545,10.17514459,13.41633766,13.85148063,0.296747442,0.19433184,10.71740086,10.71740086,7.445276775,11.84626714,31.15927178,29.6554687,15.58464769,16,20,99,76,3.576523603,3
666.0078122,9.92739481,10.16777481,13.48200109,13.9116016,0.295078074,0.195468347,10.72943777,10.72943777,7.435568704,11.83545674,31.15856164,29.65443533,15.48216097,16,20,99,76,3.576523603,3
667.0078122,9.927207384,10.1658617,13.56616194,13.95779686,0.292056801,0.196572207,10.72332187,10.72332187,7.425935084,11.82468553,31.15794224,29.65335016,15.48216097,16,20,99,76,3.576523603,3
668.0078122,9.93225794,10.17238308,13.63056232,13.98540026,0.288549665,0.1980821,10.69829724,10.69829724,7.416380757,11.81396932,31.15726748,29.65242059,15.48216097,16,20,99,76,3.576523603,3
669.0078122,9.939155292,10.18430265,13.67114898,14.00469318,0.285839967,0.199963952,10.68726602,10.68726602,7.406828241,11.80327058,31.15668371,29.65143879,15.48216097,16,20,99,76,3.576523603,3
670.0078122,9.945010768,10.19717259,13.69876937,14.01106535,0.285054017,0.20114391,10.72233274,10.72233274,7.397357823,11.79260566,31.15611914,29.65055315,15.48216097,16,20,99,76,3.576523603,3
671.0078122,9.948190545,10.21016621,13.6990356,13.99435664,0.28660765,0.200180073,10.79555492,10.79555492,7.388026127,11.78201366,31.15554187,29.64956528,15.37310888,16,20,99,76,3.576523603,3
672.0078122,9.947305575,10.22161319,13.6539778,13.95834406,0.290002709,0.196760598,10.86270291,10.86270291,7.378683795,11.77144555,31.15504332,29.64862463,15.37310888,16,20,99,76,3.576523603,3
673.0078122,9.942051839,10.2251382,13.58135254,13.90830382,0.294060611,0.19229517,10.89388072,10.89388072,7.369426898,11.76096323,31.15450056,29.64775364,15.37310888,16,20,99,76,3.576523603,3
674.0078122,9.933877907,10.21637654,13.51189366,13.83965881,0.297479257,0.188766643,10.89737327,10.89737327,7.36033003,11.75064767,31.15390026,29.64678433,15.37310888,16,20,99,76,3.576523603,3
675.0078122,9.926590725,10.19844405,13.45364925,13.76997231,0.299405888,0.187077866,10.88612355,10.88612355,7.351454573,11.74052676,31.15316883,29.64578243,15.37310888,16,20,99,76,3.576523603,3
676.0078122,9.925146074,10.18091768,13.40855987,13.7492507,0.299668333,0.186674349,10.86107672,10.86107672,7.342724594,11.73051914,31.15253778,29.64492467,15.27252286,16,20,99,76,3.576523603,3
677.0078122,9.929995787,10.17393498,13.39323093,13.80601866,0.298572524,0.186634932,10.83419712,10.83419712,7.333865271,11.72030763,31.1519412,29.64391937,15.27252286,16,20,99,76,3.576523603,3
678.0078122,9.935761278,10.18079442,13.42082294,13.90983601,0.296628631,0.186709903,10.8289366,10.8289366,7.32488713,11.70990293,31.15128588,29.6429018,15.27252286,16,20,99,76,3.576523603,3
679.0078122,9.938504178,10.19538928,13.48914359,14.00609935,0.294473264,0.187178875,10.85182106,10.85182106,7.315931762,11.69951983,31.15068643,29.64192607,15.27252286,16,20,99,76,3.576523603,3
680.0078122,9.939102153,10.20802086,13.58195066,14.05908552,0.292897579,0.188059542,10.8836266,10.8836266,7.307014156,11.68925271,31.15005663,29.64101339,15.27252286,16,20,99,76,3.576523603,3
681.0078122,9.939207097,10.21387704,13.66593743,14.05933722,0.292658172,0.188895816,10.90040611,10.90040611,7.298389773,11.67920715,31.14934467,29.64010076,15.27252286,16,20,99,76,3.576523603,3
682.0078122,9.938861855,10.21515701,13.7015532,14.01795793,0.294068838,0.189283541,10.89589912,10.89589912,7.290049028,11.66939208,31.14869714,29.63921131,15.19327715,16,19,99,76,3.576523603,3
683.0078122,9.937522959,10.2163537,13.67255617,13.96198665,0.296784171,0.189299279,10.87814363,10.87814363,7.281860156,11.65966473,31.14802012,29.63835249,15.19327715,16,19,99,76,3.576523603,3
684.0078122,9.935325471,10.22012786,13.59999806,13.91921918,0.300049024,0.189381545,10.84844077,10.84844077,7.273846056,11.65004797,31.14723037,29.63748691,15.19327715,16,19,99,76,3.576523603,3
685.0078122,9.933258257,10.22624887,13.51802761,13.89369942,0.303149274,0.18994438,10.80153031,10.80153031,7.266014013,11.64064941,31.14636055,29.63666841,15.19327715,16,19,99,76,3.576523603,3
686.0078122,9.931593442,10.23206906,13.44609463,13.87012721,0.305627149,0.190997791,10.75098341,10.75098341,7.258303782,11.6313943,31.14553313,29.63592631,15.14365385,16,19,99,76,3.576523603,3
687.0078122,9.929261055,10.23435311,13.39038311,13.8415185,0.307256123,0.191898549,10.73182018,10.73182018,7.250657612,11.62220809,31.14471609,29.63503307,15.14365385,16,19,99,76,3.576523603,3
688.0078122,9.926180451,10.23160174,13.35488559,13.81288663,0.308110265,0.191556256,10.75836501,10.75836501,7.243108022,11.61309241,31.14394017,29.63423057,15.12607561,17,19,99,76,3.576523603,3
689.0078122,9.924040381,10.22445884,13.34219693,13.79328219,0.308699075,0.189215516,10.79989928,10.79989928,7.235708656,11.60406338,31.14308298,29.63342586,15.12607561,17,19,99,76,3.576523603,3
690.0078122,9.923743266,10.21461203,13.35421241,13.7948054,0.30964393,0.185178739,10.8203816,10.8203816,7.228342824,11.59505105,31.14226058,29.63259761,15.12607561,17,19,99,76,3.576523603,3
691.0078122,9.924244257,10.20504252,13.38313988,13.82103852,0.310860609,0.180687926,10.81816429,10.81816429,7.220967649,11.58604683,31.14132718,29.63163394,15.13726619,17,19,99,76,3.576523603,3
692.0078122,9.924247169,10.19867288,13.39483568,13.85293629,0.311162424,0.177126291,10.81144848,10.81144848,7.213584584,11.57701219,31.14043887,29.63074396,15.13726619,17,19,99,76,3.576523603,3
693.0078122,9.92417871,10.19514033,13.36533157,13.86196401,0.30907834,0.175395379,10.80640995,10.80640995,7.206249381,11.56795586,31.13947391,29.62994786,15.13726619,17,19,99,76,3.576523603,3
694.0078122,9.925850233,10.19258333,13.32958257,13.841669,0.304251885,0.175840875,10.79049143,10.79049143,7.198970426,11.55892263,31.13854901,29.62904642,15.16969697,17,19,99,76,3.576523603,3
695.0078122,9.929453824,10.19060843,13.33342448,13.81198118,0.29795705,0.178368235,10.7518988,10.7518988,7.192200028,11.55021636,31.13760265,29.62818834,15.16969697,17,19,99,76,3.576523603,3
696.0078122,9.932586369,10.18819972,13.368449,13.79364982,0.292197942,0.182421347,10.70638719,10.70638719,7.18620919,11.54196126,31.13663715,29.6273953,15.16969697,17,19,99,76,3.576523603,3
697.0078122,9.933711102,10.18331463,13.3981223,13.79130841,0.288343005,0.186929763,10.69990256,10.69990256,7.180695891,11.53402821,31.13563243,29.62660483,15.16969697,17,19,99,76,3.576523603,3
698.0078122,9.933970808,10.17700147,13.40622338,13.79819724,0.286526081,0.190473389,10.76519294,10.76519294,7.175744256,11.52652775,31.13450054,29.62579565,15.21382049,17,19,99,76,3.576523603,3
699.0078122,9.934208078,10.17381831,13.4057656,13.81205046,0.286079135,0.191789112,10.88041443,10.88041443,7.171213543,11.51949666,31.1334816,29.62483347,15.21382049,17,19,99,76,3.576523603,3
700.0078122,9.933884309,10.17616798,13.42432016,13.83647788,0.28631424,0.190476418,10.99190429,10.99190429,7.167585129,11.51321234,31.13239919,29.62395928,15.21382049,17,19,99,76,3.576523603,3
701.0078122,9.934160662,10.18116226,13.47673549,13.86581707,0.28688804,0.187366693,11.06182446,11.06182446,7.165035462,11.5076754,31.13148632,29.62307934,15.21382049,17,19,99,76,3.576523603,3
702.0078122,9.937538348,10.18419735,13.54824176,13.88912355,0.287569535,0.184033841,11.08259294,11.08259294,7.162777056,11.50248917,31.13055858,29.62221662,15.26039571,17,19,99,76,3.576523603,3
703.0078122,9.943171374,10.18356353,13.60795882,13.90796405,0.287858296,0.181692963,11.07268052,11.07268052,7.160491313,11.49743213,31.12953635,29.6213174,15.26039571,17,19,99,76,3.576523603,3
704.0078122,9.946890642,10.1806739,13.63324686,13.93103824,0.287031471,0.180530666,11.06087921,11.06087921,7.158450848,11.4925393,31.12851694,29.62044448,15.26039571,17,19,99,76,3.576523603,3
705.0078122,9.946876507,10.17781645,13.62490411,13.95958823,0.284751465,0.180022133,11.0601276,11.0601276,7.156806128,11.4878892,31.12741982,29.61956793,15.26039571,17,19,99,76,3.576523603,3
706.0078122,9.945541774,10.17748625,13.60594653,13.98950186,0.28163944,0.179863237,11.06603523,11.06603523,7.155560931,11.48355343,31.12634141,29.61877205,15.26039571,17,19,99,76,3.576523603,3
707.0078122,9.945357262,10.18119707,13.60198499,14.00969915,0.279109441,0.180535063,11.07409823,11.07409823,7.154694497,11.47956593,31.12530642,29.61796422,15.30224154,17,19,99,76,3.576523603,3
708.0078122,9.946015996,10.18714125,13.61882552,13.99741551,0.278497852,0.1829738,11.08216945,11.08216945,7.15421424,11.47619656,31.12440751,29.6170849,15.30224154,17,19,99,76,3.576523603,3
709.0078122,9.946083142,10.1906196,13.63523591,13.93288039,0.280286082,0.187646587,11.0827657,11.0827657,7.15409884,11.47351707,31.12334828,29.616342,15.30224154,17,19,99,76,3.576523603,3
710.0078122,9.944952018,10.18871841,13.62405054,13.82545637,0.283994162,0.19383723,11.06721894,11.06721894,7.1544235,11.47092721,31.1225163,29.61544462,15.30224154,17,19,99,76,3.576523603,3
711.0078122,9.942367971,10.18614655,13.58051398,13.7222601,0.288523206,0.199776742,11.04399363,11.04399363,7.155135065,11.4686148,31.12155814,29.61455132,15.33500271,17,19,99,77,3.576523603,3
712.0078122,9.938030691,10.19216415,13.52499323,13.66612789,0.292547495,0.20356138,11.03860939,11.03860939,7.156247116,11.46663715,31.12073955,29.61372393,15.33500271,17,19,99,77,3.576523603,3
713.0078122,9.933131497,10.20753373,13.49232244,13.65060301,0.294966254,0.20415436,11.06539122,11.06539122,7.157833351,11.46501911,31.11997564,29.61284046,15.33500271,17,19,99,77,3.576523603,3
714.0078122,9.930052902,10.220549,13.5044774,13.6500255,0.295411867,0.201735987,11.11245635,11.11245635,7.15996554,11.46377819,31.11920819,29.61207828,15.35688663,17,19,99,77,3.576523603,3
715.0078122,9.929248746,10.22073442,13.54238215,13.66696472,0.294438834,0.197276823,11.15508192,11.15508192,7.162664839,11.4629642,31.11844061,29.61106278,15.35688663,17,19,99,77,3.576523603,3
716.0078122,9.929222242,10.21096475,13.57374841,13.72265037,0.293147521,0.191835923,11.17327625,11.17327625,7.165765039,11.4625313,31.11778876,29.6100457,15.35688663,17,19,99,77,3.576523603,3
717.0078122,9.92931876,10.20161341,13.58996527,13.81990156,0.292544645,0.186255165,11.15701318,11.15701318,7.16889589,11.46209286,31.11705457,29.6090042,15.35688663,17,19,99,77,3.576523603,3
718.0078122,9.929533944,10.19751534,13.59157449,13.92221693,0.293018603,0.181198328,11.09797643,11.09797643,7.172451887,11.46199965,31.11628141,29.60807584,15.36769465,17,19,99,77,3.576523603,3
719.0078122,9.929182684,10.19480285,13.57008236,13.9707794,0.294099037,0.177192689,10.97904646,10.97904646,7.176903062,11.46273364,31.11559395,29.60721091,15.36769465,17,19,99,77,3.576523603,3
720.0078122,9.927795403,10.18765219,13.4979127,13.90571098,0.294530166,0.174428225,10.78282094,10.78282094,7.181871598,11.46408749,31.11480793,29.60629297,15.36769465,17,19,99,77,1.981235742,1
721.0078122,9.925325788,10.17222615,13.30051144,13.65576561,0.292726281,0.172573463,10.52290404,10.52290404,7.18713067,11.46580964,31.11407724,29.60532461,14.67953459,21,19,99,76,1.981235742,1
722.0078122,9.920985973,10.14326821,12.88584336,13.16875308,0.287567526,0.170989499,10.25915031,10.25915031,7.192693039,11.46786521,31.11348307,29.60439951,14.67953459,21,19,99,76,1.981235742,1
723.0078122,9.913985763,10.09755254,12.27286563,12.50478986,0.279167231,0.169396508,10.0641703,10.0641703,7.198480451,11.47016307,31.11281669,29.60334251,14.63972135,21,19,99,76,1.981235742,1
724.0078122,9.905083091,10.04306138,11.63546305,11.84431074,0.269049816,0.168576751,9.968574624,9.968574624,7.204352366,11.47259529,31.11225445,29.60244684,14.63972135,21,19,99,76,1.981235742,1
725.0078122,9.896739528,9.99473379,11.15576215,11.35417548,0.259542252,0.170346205,9.942849692,9.942849692,7.21023943,11.47505486,31.11161771,29.60153382,14.56263603,21,19,99,76,1.981235742,1
726.0078122,9.892256027,9.962381362,10.89440958,11.0748789,0.252811442,0.176173053,9.938507341,9.938507341,7.216163622,11.47753629,31.1109988,29.60055328,14.56263603,21,19,99,76,1.981235742,1
727.0078122,9.893566815,9.947734265,10.81380617,10.94976153,0.25007535,0.18502908,9.93654614,9.93654614,7.222062683,11.4800488,31.1103732,29.59959237,14.56263603,21,19,99,76,1.981235742,1
728.0078122,9.898870018,9.94786046,10.84125026,10.92352026,0.251125635,0.192665632,9.941486887,9.941486887,7.227931478,11.48248763,31.10979308,29.59859784,14.45304767,20,19,99,76,1.981235742,1
729.0078122,9.902976774,9.955867237,10.88808128,10.97077059,0.254283348,0.194066885,9.947588828,9.947588828,7.233738334,11.48483161,31.10925518,29.59765554,14.45304767,20,19,99,76,1.981235742,1
730.0078122,9.901730987,9.961961562,10.873875,11.04605647,0.257095304,0.187349048,9.940554025,9.940554025,7.239425904,11.48709039,31.10864266,29.59676552,14.45304767,20,19,99,76,1.981235742,1
731.0078122,9.896207228,9.960102159,10.78223405,11.08408411,0.257680687,0.175408737,9.920538258,9.920538258,7.244913758,11.48917275,31.1079334,29.59583686,14.31735475,20,19,99,76,1.981235742,1
732.0078122,9.890583643,9.953049005,10.67239617,11.06225049,0.255695692,0.163590668,9.897192413,9.897192413,7.250222178,11.49108639,31.10721862,29.59504755,14.31735475,20,19,99,76,1.981235742,1
733.0078122,9.887123536,9.947480001,10.60622664,11.00876896,0.252026941,0.155891744,9.876262385,9.876262385,7.255390272,11.49287614,31.10655657,29.5941073,14.31735475,20,19,99,76,1.981235742,1
734.0078122,9.885755823,9.946012266,10.58402274,10.95714415,0.247685086,0.152992197,9.865662477,9.865662477,7.260312754,11.49441745,31.10571568,29.59317531,14.16277062,20,19,99,75,1.981235742,1
735.0078122,9.886323421,9.947417886,10.57559718,10.92337729,0.243175687,0.152977168,9.873231175,9.873231175,7.264870605,11.49560507,31.10501769,29.59235907,14.16277062,20,19,99,75,1.981235742,1
736.0078122,9.888209723,9.949928138,10.57398221,10.90780321,0.238779029,0.153334733,9.890717564,9.890717564,7.269024356,11.4964008,31.10429532,29.59148986,14.16277062,20,19,99,75,1.981235742,1
737.0078122,9.889897055,9.95051041,10.58288644,10.90378083,0.234975412,0.152495792,9.899570613,9.899570613,7.272815311,11.49684005,31.10349318,29.59058015,14.16277062,20,19,99,75,1.981235742,1
738.0078122,9.890727091,9.947179954,10.59467228,10.91372724,0.232347611,0.150195861,9.896554129,9.896554129,7.276247747,11.49693629,31.10267264,29.58968682,13.99641354,19,19,99,75,1.981235742,1
739.0078122,9.891247667,9.94263038,10.60248756,10.94295954,0.231230467,0.147032032,9.89630368,9.89630368,7.279338214,11.49668153,31.10171898,29.588924,13.99641354,19,19,99,75,1.981235742,1
740.0078122,9.89149873,9.940409452,10.60382857,10.97513064,0.231603599,0.143896718,9.907110404,9.907110404,7.282020068,11.49604456,31.10072526,29.58800106,13.8244667,19,19,99,75,1.981235742,1
741.0078122,9.890384931,9.94032916,10.59451063,10.983449,0.233117714,0.141567007,9.918915384,9.918915384,7.284236306,11.49496991,31.09975184,29.58707669,13.8244667,19,19,99,75,1.981235742,1
742.0078122,9.887475314,9.940506743,10.57643953,10.96840251,0.234991341,0.140399147,9.917228826,9.917228826,7.286045161,11.49302808,31.09867563,29.58615159,13.8244667,19,19,99,75,1.981235742,1
743.0078122,9.884518856,9.940518473,10.56674762,10.9601584,0.236053137,0.140220709,9.900361989,9.900361989,7.287473749,11.48681307,31.09758972,29.58514269,13.6515822,18,18,99,75,1.981235742,1
744.0078122,9.883234283,9.940977202,10.58496655,10.97406487,0.235400087,0.140490498,9.879206736,9.879206736,7.288487078,11.48509685,31.09637978,29.58431099,13.6515822,18,18,99,75,1.981235742,1
745.0078122,9.882823235,9.942427005,10.62515637,10.98856499,0.233221512,0.140677744,9.866749704,9.866749704,7.289026075,11.48297327,31.09508771,29.58327953,13.6515822,18,18,99,75,1.981235742,1
746.0078122,9.88172066,9.945322294,10.65799797,10.98359884,0.230757451,0.14057657,9.868987978,9.868987978,7.289183442,11.48051536,31.0935791,29.58220661,13.6515822,18,18,99,75,1.981235742,1
747.0078122,9.880242273,9.949395459,10.66529657,10.96741548,0.229183637,0.140338037,9.879617723,9.879617723,7.28901994,11.47780984,31.09211771,29.58128978,13.6515822,18,18,99,75,1.981235742,1
748.0078122,9.880258948,9.953751822,10.65360864,10.95555363,0.228538039,0.140220683,9.887748864,9.887748864,7.288459451,11.4748538,31.0906848,29.58034875,13.48066002,18,18,99,74,1.981235742,1
749.0078122,9.882720548,9.958654203,10.63827973,10.95465216,0.227789335,0.140286953,9.89024028,9.89024028,7.287462295,11.47163062,31.08930955,29.57930909,13.48066002,18,18,99,74,1.981235742,1
750.0078122,9.886461787,9.965486853,10.63253268,10.96544435,0.225878326,0.140278669,9.888165999,9.888165999,7.286203443,11.46824248,31.08765112,29.57818166,13.48066002,18,18,99,74,1.981235742,1
751.0078122,9.889802809,9.973788115,10.64503666,10.98405742,0.22271391,0.139723854,9.879350051,9.879350051,7.284881645,11.46490919,31.08595574,29.57713446,13.48066002,18,18,99,74,1.981235742,1
752.0078122,9.892006826,9.979698768,10.67158374,11.00239911,0.219347225,0.138232874,9.863101638,9.863101638,7.283627494,11.46163688,31.08427784,29.57604069,13.48066002,18,18,99,74,1.981235742,1
753.0078122,9.892913135,9.979497149,10.69206424,11.01606889,0.217196226,0.135890049,9.844711606,9.844711606,7.282206746,11.45835687,31.08264114,29.57493,13.3130403,18,18,99,74,1.981235742,1
754.0078122,9.89237383,9.974249033,10.68740449,11.03342548,0.216823618,0.133466084,9.830779811,9.830779811,7.280529368,11.45505625,31.08085028,29.57380166,13.3130403,18,18,99,74,1.981235742,1
755.0078122,9.891098563,9.968749472,10.66380048,11.06457954,0.217279394,0.132136146,9.823586883,9.823586883,7.278423306,11.45154897,31.07897439,29.57271617,13.3130403,18,18,99,74,1.981235742,1
756.0078122,9.891101339,9.966330388,10.65331711,11.10136893,0.216768382,0.132840769,9.820404054,9.820404054,7.275485819,11.4477016,31.0771328,29.57146677,13.14903658,18,18,99,74,1.981235742,1
757.0078122,9.892975317,9.966173503,10.67743306,11.11846712,0.214174166,0.135742471,9.818283372,9.818283372,7.272197716,11.44380566,31.07526672,29.5702621,13.14903658,18,18,99,74,1.981235742,1
758.0078122,9.894536621,9.964875162,10.71854524,11.09210495,0.210021269,0.140203624,9.819887315,9.819887315,7.268607572,11.43983707,31.07346488,29.56903851,13.14903658,18,18,99,74,1.981235742,1
759.0078122,9.894753884,9.960602434,10.74930893,11.01997408,0.206035889,0.145131367,9.831656872,9.831656872,7.264843698,11.43587907,31.07147196,29.56790243,12.9886474,18,18,99,73,1.981235742,1
760.0078122,9.895371054,9.955923919,10.76881245,10.92641254,0.203912759,0.149300053,9.857784813,9.857784813,7.260735501,11.43179632,31.06956453,29.56679055,12.9886474,18,18,99,73,1.981235742,1
761.0078122,9.896988735,9.955025368,10.78633307,10.84673318,0.204434596,0.15157328,9.899021575,9.899021575,7.256164776,11.42777259,31.06765391,29.56558995,12.9886474,18,18,99,73,1.981235742,1
762.0078122,9.897982133,9.958719231,10.79482503,10.80513139,0.207389122,0.151263218,9.946151255,9.946151255,7.252663876,11.42479224,31.06574571,29.56436639,12.9886474,18,18,99,73,1.981235742,1
763.0078122,9.897674335,9.964208486,10.77892535,10.80374391,0.211939571,0.148581033,9.972678859,9.972678859,7.250452023,11.4229401,31.06382304,29.56303859,12.83224742,18,18,99,73,1.981235742,1
764.0078122,9.896828769,9.967991706,10.73872382,10.8273638,0.217018318,0.144673612,9.957516222,9.957516222,7.248712468,11.42186941,31.06183959,29.56180865,12.83224742,18,18,99,73,1.981235742,1
765.0078122,9.895070051,9.967207292,10.69575151,10.85630727,0.221646592,0.140973683,9.912409566,9.912409566,7.247015242,11.42121986,31.05986366,29.56061474,12.83224742,18,18,99,73,1.981235742,1
766.0078122,9.890981062,9.961306162,10.675554,10.87843344,0.225266278,0.138366659,9.864643934,9.864643934,7.245604716,11.42104513,31.05789976,29.55934536,12.83224742,18,18,99,73,1.981235742,1
767.0078122,9.885628253,9.953652282,10.68311281,10.89226533,0.228002581,0.136946254,9.826924951,9.826924951,7.244437154,11.42134581,31.05595223,29.5580451,12.83224742,18,18,99,73,1.981235742,1
768.0078122,9.882808965,9.948378549,10.69733238,10.90607195,0.230502595,0.136491379,9.800069236,9.800069236,7.243396025,11.42202982,31.05396414,29.55671069,12.68108495,18,18,99,73,1.981235742,1
769.0078122,9.883984619,9.946053269,10.69274499,10.93523865,0.233149379,0.137038416,9.787318222,9.787318222,7.242508184,11.42240737,31.05220689,29.55542888,12.68108495,18,18,99,73,1.981235742,1
770.0078122,9.886575446,9.944878332,10.6594751,10.98218977,0.235141696,0.13890848,9.791466964,9.791466964,7.241948444,11.42386148,31.05018533,29.55429911,12.68108495,18,18,99,73,1.981235742,1
771.0078122,9.88866472,9.944742167,10.61471308,11.01859654,0.234581122,0.142196021,9.807545483,9.807545483,7.242462863,11.42650924,31.0483524,29.55329092,12.68108495,18,18,99,73,1.981235742,1
772.0078122,9.891569048,9.947330735,10.6062938,11.0114366,0.229906575,0.146330607,9.826808716,9.826808716,7.244087905,11.4304282,31.04655339,29.55217989,12.53748406,18,18,99,72,1.981235742,1
773.0078122,9.896756397,9.952282772,10.67010922,10.96195995,0.221501952,0.150212467,9.841070677,9.841070677,7.246070302,11.43513502,31.04470753,29.55120448,12.53748406,18,18,99,72,1.981235742,1
774.0078122,9.903034048,9.956646477,10.77695364,10.89919036,0.211897547,0.152811199,9.844269263,9.844269263,7.248052884,11.44028077,31.04310046,29.55024455,12.40473211,19,18,99,72,1.981235742,1
775.0078122,9.907518464,9.958994579,10.85818171,10.85197831,0.204439932,0.153675679,9.841119967,9.841119967,7.25017532,11.4458672,31.04151522,29.54939732,12.40473211,19,18,99,72,1.981235742,1
776.0078122,9.908151694,9.960289793,10.87124463,10.8390752,0.201623637,0.152948935,9.847230925,9.847230925,7.254275173,11.45328529,31.03996265,29.54852294,12.40473211,19,18,99,72,1.981235742,1
777.0078122,9.905070508,9.961045182,10.81922603,10.86545097,0.203994346,0.151001959,9.870724171,9.870724171,7.260530672,11.46276798,31.03839333,29.54771261,12.28669843,19,18,99,72,1.981235742,1
778.0078122,9.899883643,9.961097828,10.73533788,10.91937935,0.20983652,0.148165061,9.901020131,9.901020131,7.267201603,11.47296668,31.03693332,29.54708403,12.28669843,19,18,99,72,1.981235742,1
779.0078122,9.894843604,9.961564371,10.66429047,10.97766016,0.215899564,0.144868582,9.92061015,9.92061015,7.273451023,11.48302358,31.03546087,29.54637226,12.28669843,19,18,99,72,1.981235742,1
780.0078122,9.892374203,9.963909023,10.63800105,11.00927755,0.219208899,0.141946857,9.924536622,9.924536622,7.279853914,11.49317299,31.03417581,29.54568458,12.18726387,19,18,99,72,1.981235742,1
781.0078122,9.893123678,9.967053852,10.65710303,10.98605581,0.218845821,0.140529683,9.924272204,9.924272204,7.286814414,11.50376375,31.03275503,29.54510886,12.18726387,19,18,99,72,1.981235742,1
782.0078122,9.895102894,9.968187648,10.69730203,10.91341633,0.216050376,0.141314836,9.93232592,9.93232592,7.294356259,11.51482246,31.0314705,29.54458538,12.18726387,19,18,99,72,1.981235742,1
783.0078122,9.89587018,9.965747303,10.72848269,10.83508472,0.212585409,0.143809072,9.945452615,9.945452615,7.302727607,11.52652803,31.0302511,29.54423022,12.18726387,19,18,99,72,1.981235742,1
784.0078122,9.894826485,9.960762294,10.7324446,10.7897534,0.209217629,0.146358849,9.946394078,9.946394078,7.31195878,11.53892106,31.02910398,29.54386776,12.10964907,20,18,99,71,1.981235742,1
785.0078122,9.893320749,9.956478072,10.714765,10.78147187,0.205848346,0.147183026,9.923961484,9.923961484,7.321746633,11.55186557,31.02786259,29.54357032,12.10964907,20,18,99,71,1.981235742,1
786.0078122,9.892579896,9.955108766,10.6974598,10.79183586,0.202648352,0.145572502,9.885323338,9.885323338,7.332177092,11.56561439,31.02667571,29.54339218,12.10964907,20,18,99,71,1.981235742,1
787.0078122,9.89199929,9.95543342,10.69906847,10.80195094,0.200497669,0.1422156,9.849293393,9.849293393,7.343232809,11.58004473,31.02559397,29.54333158,12.10964907,20,18,99,71,1.981235742,1
788.0078122,9.890359803,9.955669323,10.72086329,10.80699765,0.200253539,0.138460702,9.832392778,9.832392778,7.354737166,11.59487332,31.02461427,29.54318893,12.10964907,20,18,99,71,1.981235742,1
789.0078122,9.888220026,9.956373277,10.74460572,10.8189202,0.201908621,0.135301314,9.835991398,9.835991398,7.366594928,11.6099354,31.02350708,29.54322546,12.10964907,20,18,99,71,1.981235742,1
790.0078122,9.887446847,9.958483299,10.74719544,10.84987482,0.204659511,0.132919988,9.847108242,9.847108242,7.378860048,11.62517258,31.02251217,29.54329026,12.0557316,20,18,99,71,1.981235742,1
791.0078122,9.888501861,9.96104231,10.72825926,10.89711425,0.207713963,0.130955952,9.85266264,9.85266264,7.391518116,11.64062088,31.02153442,29.54344252,12.0557316,20,18,99,71,1.981235742,1
792.0078122,9.889895743,9.962023633,10.70840844,10.95108714,0.210921104,0.129149885,9.847825609,9.847825609,7.404399011,11.65621055,31.02057284,29.54358707,12.0557316,20,18,99,71,1.981235742,1
793.0078122,9.890249313,9.959970302,10.69387319,11.00341709,0.21470557,0.127852543,9.834878096,9.834878096,7.417342184,11.67180042,31.01960383,29.54392624,12.0557316,20,18,99,71,1.981235742,1
794.0078122,9.889957562,9.955355464,10.67493362,11.04134613,0.219602591,0.127904603,9.821777324,9.821777324,7.430419118,11.68738566,31.01870304,29.54426928,12.0557316,20,18,99,71,1.981235742,1
795.0078122,9.8901782,9.950187801,10.64906724,11.05222709,0.225910233,0.129896122,9.818523696,9.818523696,7.443641669,11.70298697,31.01792016,29.54472707,12.02545011,20,18,99,71,1.981235742,1
796.0078122,9.890817118,9.946014209,10.61448946,11.04430382,0.233349799,0.133543952,9.827781544,9.827781544,7.456962326,11.71854546,31.0170766,29.54514818,12.02545011,20,18,99,71,1.981235742,1
797.0078122,9.890863194,9.943299363,10.56699937,11.04611311,0.240636736,0.137872342,9.84005732,9.84005732,7.470315367,11.73401415,31.01612964,29.54576637,12.01640744,21,19,99,71,1.981235742,1
798.0078122,9.890108673,9.94216204,10.52158768,11.06201198,0.245396754,0.141952229,9.843803105,9.843803105,7.48359368,11.74926602,31.01520413,29.54633776,12.01640744,21,19,99,71,1.981235742,1
799.0078122,9.889925196,9.943000551,10.51021001,11.05597316,0.245234978,0.145360395,9.841771885,9.841771885,7.496735242,11.76422854,31.01429102,29.54686032,12.02378767,21,19,99,71,1.981235742,1
800.0078122,9.891789894,9.945877188,10.54645948,11.00616603,0.239446635,0.147986072,9.848928342,9.848928342,7.50967483,11.77890647,31.01341874,29.54753575,12.02378767,21,19,99,71,1.981235742,1
801.0078122,9.895269229,9.949711806,10.61158954,10.93732992,0.229622011,0.149606131,9.868003852,9.868003852,7.522327155,11.79316587,31.01247168,29.54815052,12.02378767,21,19,99,71,1.981235742,1
802.0078122,9.898762026,9.953434554,10.68065214,10.88861331,0.218458413,0.149872731,9.881891085,9.881891085,7.534610235,11.80701258,31.01159635,29.54878625,12.04067209,21,19,99,71,1.981235742,1
803.0078122,9.901195101,9.957242634,10.74140698,10.87937806,0.208153345,0.148861527,9.878954457,9.878954457,7.546533654,11.82437381,31.01061511,29.54946784,12.04067209,21,19,99,71,1.981235742,1
804.0078122,9.902812168,9.961775095,10.78761936,10.90048868,0.199832696,0.147553954,9.865826719,9.865826719,7.558032734,11.83605594,31.00970517,29.55007627,12.05876757,21,19,99,71,1.981235742,1
805.0078122,9.90526041,9.966100028,10.81690776,10.92164443,0.19387846,0.147408296,9.851432023,9.851432023,7.569068096,11.84682879,31.00877275,29.55064854,12.05876757,21,19,99,71,1.981235742,1
806.0078122,9.909480869,9.96754706,10.83316085,10.91282088,0.190287157,0.1490907,9.842143815,9.842143815,7.579537614,11.85712922,31.00790204,29.55123497,12.06945801,22,19,99,71,1.981235742,1
807.0078122,9.913331808,9.964763187,10.84146792,10.86807547,0.188742212,0.151613727,9.852144017,9.852144017,7.589371877,11.86685554,31.00702292,29.55174712,12.06945801,22,19,99,71,1.981235742,1
808.0078122,9.913840075,9.960045227,10.8508776,10.80813243,0.188582835,0.152934168,9.893868355,9.893868355,7.598570782,11.87596602,31.00606032,29.55218272,12.06945801,22,19,99,71,1.981235742,1
809.0078122,9.911462819,9.95776217,10.87469611,10.75726448,0.188901028,0.151448456,9.955329869,9.955329869,7.607123639,11.88445136,31.00490413,29.55273704,12.06498955,22,19,99,71,1.981235742,1
810.0078122,9.909155377,9.960786259,10.91162838,10.72730671,0.188850789,0.147030995,10.00506579,10.00506579,7.614979101,11.89227416,31.00400124,29.55331148,12.06498955,22,19,99,71,1.981235742,1
811.0078122,9.908526958,9.968184684,10.9391495,10.72379421,0.188099586,0.140920846,10.02138529,10.02138529,7.621997244,11.89923488,31.00295761,29.55378187,12.03954342,22,19,99,71,1.981235742,1
812.0078122,9.908918698,9.975811829,10.93686156,10.74517343,0.187075756,0.134930162,10.00411442,10.00411442,7.628002342,11.90531631,31.0018477,29.55415648,12.03954342,22,19,99,71,1.981235742,1
813.0078122,9.908613067,9.980017828,10.91041199,10.7778079,0.186758706,0.130583615,9.9648648,9.9648648,7.633188723,11.91061603,31.00065158,29.55445812,12.03954342,22,19,99,71,1.981235742,1
814.0078122,9.906394177,9.981365211,10.88699781,10.81065252,0.188102493,0.128485565,9.919947393,9.919947393,7.637714074,11.91517202,30.99943365,29.55483043,12.03954342,22,19,99,71,1.981235742,1
815.0078122,9.902704868,9.982732101,10.88577886,10.84438696,0.191417179,0.128158733,9.886864805,9.886864805,7.641589143,11.9189954,30.9982784,29.55509494,12.03954342,22,19,99,71,1.981235742,1
816.0078122,9.89905278,9.983808952,10.89826138,10.87819824,0.196059916,0.12851091,9.881211915,9.881211915,7.644839759,11.92209848,30.99700989,29.55537671,11.98996574,21,19,99,71,1.981235742,1
817.0078122,9.896530627,9.981578347,10.90318141,10.90398972,0.20070665,0.128679017,9.914119091,9.914119091,7.64745114,11.92444384,30.99572345,29.55544749,11.98996574,21,19,99,71,1.981235742,1
818.0078122,9.895719446,9.976168987,10.89357811,10.91484326,0.204209756,0.12869141,9.984299654,9.984299654,7.649379072,11.92606234,30.99444285,29.55546515,11.98996574,21,19,99,71,1.981235742,1
819.0078122,9.897185402,9.972136279,10.88054644,10.90836501,0.206487763,0.129507177,10.07367035,10.07367035,7.650727536,11.92695945,30.99319893,29.55542999,11.98996574,21,19,99,71,1.981235742,1
820.0078122,9.901032927,9.973479492,10.86973656,10.88437326,0.208459963,0.132325743,10.15305709,10.15305709,7.651487845,11.92713763,30.99190107,29.55525895,11.91601268,21,19,99,72,1.981235742,1
821.0078122,9.905985348,9.979369356,10.84168172,10.84457296,0.210743603,0.137432794,10.18521251,10.18521251,7.651576307,11.92657035,30.99064406,29.55515238,11.91601268,21,19,99,72,1.981235742,1
822.0078122,9.909630424,9.984988371,10.78239561,10.79611192,0.212576344,0.14339763,10.14130443,10.14130443,7.650519611,11.92480568,30.98933759,29.55502411,11.91601268,21,19,99,72,1.981235742,1
823.0078122,9.910030741,9.984106502,10.72219692,10.75193568,0.212671277,0.147525979,10.0386664,10.0386664,7.648362993,11.92202349,30.98807667,29.554754,11.82010426,21,19,99,72,1.981235742,1
824.0078122,9.906805451,9.97302142,10.69546503,10.72381712,0.211333966,0.147729461,9.934741023,9.934741023,7.645860011,11.91869938,30.98683234,29.55457398,11.82010426,21,19,99,72,1.981235742,1
825.0078122,9.901580693,9.956262792,10.69039836,10.72206944,0.211033692,0.144208897,9.869740149,9.869740149,7.643300414,11.91512323,30.9855771,29.55423081,11.70670995,21,19,99,72,1.981235742,1
826.0078122,9.896929794,9.944494785,10.67676759,10.75680967,0.214328518,0.139296399,9.844183666,9.844183666,7.640558499,11.91121949,30.98431403,29.55382309,11.70670995,21,19,99,72,1.981235742,1
827.0078122,9.894225216,9.94511428,10.65028703,10.82155464,0.221225949,0.135594389,9.843455355,9.843455355,7.637583916,11.90541142,30.98302368,29.55341471,11.70670995,21,19,99,72,1.981235742,1
828.0078122,9.893442826,9.957190783,10.6357182,10.88530986,0.228707644,0.134182543,9.855970171,9.855970171,7.63449094,11.90091445,30.9816797,29.55299866,11.58156836,20,18,99,72,1.981235742,1
829.0078122,9.893884044,9.972585798,10.65854815,10.92169146,0.232996327,0.134358487,9.873991938,9.873991938,7.631264723,11.89601086,30.98031615,29.55245411,11.58156836,20,18,99,72,1.981235742,1
830.0078122,9.894499351,9.981904373,10.70999972,10.93729496,0.232586366,0.13483808,9.890781572,9.890781572,7.62784537,11.89072151,30.97911039,29.55191439,11.45094353,20,18,99,72,1.981235742,1
831.0078122,9.894331909,9.982252422,10.74503364,10.95157875,0.229195938,0.135125267,9.898622322,9.898622322,7.623624694,11.8846706,30.97774227,29.55104747,11.45094353,20,18,99,72,1.981235742,1
832.0078122,9.892660901,9.977146826,10.72604145,10.96078272,0.225715911,0.13576526,9.892025034,9.892025034,7.618414448,11.87765068,30.97637153,29.55035815,11.45094353,20,18,99,72,1.981235742,1
833.0078122,9.889598873,9.969608837,10.66258251,10.94297544,0.223403874,0.137359424,9.875842183,9.875842183,7.613115725,11.87020989,30.97499998,29.54971119,11.45094353,20,18,99,72,1.981235742,1
834.0078122,9.887049827,9.960031624,10.60259939,10.88851559,0.221287364,0.139485186,9.864465791,9.864465791,7.608587168,11.86304014,30.9736518,29.54893895,11.32104968,20,18,99,72,1.981235742,1
835.0078122,9.887226872,9.949607118,10.58630316,10.81648045,0.217964218,0.140774816,9.868740224,9.868740224,7.604704753,11.85627058,30.97227435,29.54808512,11.32104968,20,18,99,72,1.981235742,1
836.0078122,9.889875479,9.942210956,10.61263937,10.76969653,0.213395985,0.140131953,9.886877593,9.886877593,7.599899451,11.84866706,30.97082517,29.54729762,11.32104968,20,18,99,72,1.981235742,1
837.0078122,9.89309242,9.941883361,10.65428662,10.78360084,0.208850836,0.137871098,9.908517139,9.908517139,7.593606677,11.83965092,30.9694452,29.54648382,11.32104968,20,18,99,72,1.981235742,1
838.0078122,9.895946226,9.948317051,10.68748889,10.84197143,0.205617496,0.13554957,9.926100051,9.926100051,7.587753692,11.83089375,30.96820818,29.54556174,11.1976701,19,18,99,72,1.981235742,1
839.0078122,9.898096859,9.956204029,10.69977049,10.8853417,0.204055122,0.13467351,9.938789733,9.938789733,7.583084569,11.82293964,30.96707256,29.54468747,11.1976701,19,18,99,72,1.981235742,1
840.0078122,9.899079085,9.960572697,10.69049771,10.87810145,0.203612687,0.135546074,9.946147047,9.946147047,7.579166149,11.81574473,30.96584095,29.54365553,11.1976701,19,18,99,72,1.981235742,1
841.0078122,9.899210559,9.961336519,10.66779234,10.83840869,0.20336455,0.137229244,9.947209518,9.947209518,7.575712644,11.80899866,30.96458016,29.54275935,11.08590288,19,18,99,72,1.981235742,1
842.0078122,9.898881119,9.960773471,10.63765115,10.80058697,0.202476646,0.138470898,9.943734645,9.943734645,7.572534155,11.80257875,30.96340678,29.5417818,11.08590288,19,18,99,72,1.981235742,1
843.0078122,9.897896809,9.959574036,10.60607615,10.78234192,0.200446392,0.138729711,9.937299284,9.937299284,7.569455233,11.79626004,30.96225902,29.54084749,11.08590288,19,18,99,72,1.981235742,1
844.0078122,9.897079483,9.958693565,10.5907133,10.79204791,0.19723078,0.138500762,9.927908558,9.927908558,7.566305437,11.78995197,30.96103252,29.53984284,11.08590288,19,18,99,72,1.981235742,1
845.0078122,9.898152039,9.961270275,10.61247996,10.83105943,0.193330492,0.13872225,9.917325661,9.917325661,7.563378512,11.78375877,30.95996019,29.53881017,10.98992811,19,17,99,72,1.981235742,1
846.0078122,9.900832074,9.967902629,10.67258948,10.87532295,0.18974538,0.139804088,9.908333917,9.908333917,7.560662688,11.77754485,30.95894842,29.53778244,10.98992811,19,17,99,72,1.981235742,1
847.0078122,9.902114866,9.973589407,10.74849163,10.89120298,0.187634862,0.141216544,9.901825862,9.901825862,7.55815556,11.77128314,30.95777796,29.53666929,10.98992811,19,17,99,72,1.981235742,1
848.0078122,9.899836268,9.974041053,10.81518357,10.87933495,0.187688403,0.142031518,9.896914814,9.896914814,7.555866441,11.76518243,30.95655537,29.53570092,10.98992811,19,17,99,72,1.981235742,1
849.0078122,9.896004716,9.970879677,10.85869333,10.86530944,0.189696305,0.141724584,9.891903156,9.891903156,7.553767942,11.7593219,30.95545011,29.53472177,10.98992811,19,17,99,72,1.981235742,1
850.0078122,9.894743961,9.967471009,10.86962401,10.85767341,0.19282119,0.140404563,9.884590836,9.884590836,7.551759124,11.75366365,30.95444286,29.53367307,10.91272095,19,17,99,72,1.981235742,1
851.0078122,9.897105767,9.964207834,10.84675878,10.85198584,0.196411799,0.138454216,9.872765409,9.872765409,7.549809323,11.74815736,30.95350061,29.53278608,10.91272095,19,17,99,72,1.981235742,1
852.0078122,9.900209019,9.959886167,10.80802523,10.85106112,0.200454762,0.136222334,9.860495985,9.860495985,7.547983755,11.74275281,30.95250983,29.5318838,10.91272095,19,17,99,72,1.981235742,1
853.0078122,9.901255952,9.9550413,10.77561743,10.85825261,0.205221257,0.134075174,9.859792099,9.859792099,7.54628403,11.73748691,30.95151277,29.53083408,10.91272095,19,17,99,72,1.981235742,1
854.0078122,9.900272362,9.953268907,10.75273095,10.87585446,0.21055954,0.132582707,9.873043489,9.873043489,7.545051153,11.73273823,30.95054215,29.52988007,10.91272095,19,17,99,72,1.981235742,1
855.0078122,9.899005033,9.958279316,10.72854114,10.90811335,0.215439834,0.132481829,9.884811758,9.884811758,7.545058569,11.7290086,30.94940104,29.528869,10.85571524,19,17,99,72,1.981235742,1
856.0078122,9.898513034,9.968098923,10.69655072,10.94478498,0.218111113,0.134258652,9.882274203,9.882274203,7.54570755,11.72589959,30.94836045,29.52792614,10.85571524,19,17,99,72,1.981235742,1
857.0078122,9.89848204,9.975240014,10.66308074,10.96322273,0.217085884,0.137587403,9.870513183,9.870513183,7.546303932,11.72294592,30.94732598,29.52698348,10.85571524,19,17,99,72,1.981235742,1
858.0078122,9.898492854,9.975274927,10.6467504,10.95774718,0.212488702,0.141164001,9.860893005,9.860893005,7.546799972,11.72000701,30.94638099,29.5262488,10.81851129,19,17,99,72,1.981235742,1
859.0078122,9.898604934,9.971663007,10.66438601,10.94279772,0.206431445,0.143260604,9.8564118,9.8564118,7.54723086,11.71708193,30.94540932,29.52540103,10.81851129,19,17,99,72,1.981235742,1
860.0078122,9.898337648,9.968744674,10.70637265,10.9306489,0.201737037,0.142722081,9.857631556,9.857631556,7.547720484,11.71422873,30.94429839,29.52448632,10.7987712,19,17,99,72,1.981235742,1
861.0078122,9.896846691,9.965925988,10.73998511,10.92390032,0.200162166,0.13968735,9.872637834,9.872637834,7.548377211,11.71158833,30.94334024,29.52370645,10.7987712,19,17,99,72,1.981235742,1
862.0078122,9.894626047,9.962524118,10.74817795,10.92323195,0.201825275,0.135474276,9.906210154,9.906210154,7.54919109,11.70908679,30.94237737,29.52302135,10.7987712,19,17,99,72,1.981235742,1
863.0078122,9.893363189,9.961176239,10.74439934,10.93028642,0.205861372,0.13169057,9.94197025,9.94197025,7.549984662,11.70670359,30.94138762,29.52226414,10.79242675,19,17,99,72,1.981235742,1
864.0078122,9.893089645,9.963172045,10.7401675,10.94127888,0.211257258,0.129322179,9.950572309,9.950572309,7.550747525,11.70437862,30.94034192,29.52158515,10.79242675,19,17,99,72,1.981235742,1
865.0078122,9.89174339,9.965520646,10.72157561,10.9475136,0.217088668,0.128516541,9.923454453,9.923454453,7.551519852,11.7021218,30.93935533,29.52100745,10.79242675,19,17,99,72,1.981235742,1
866.0078122,9.889197409,9.965673059,10.67957959,10.9512561,0.222433715,0.129004412,9.885799138,9.885799138,7.55231972,11.69998076,30.93834204,29.52050834,10.79423744,19,17,99,72,1.981235742,1
867.0078122,9.887567089,9.965017795,10.63968392,10.96603678,0.226469117,0.130532379,9.865484266,9.865484266,7.553208438,11.69798044,30.93725054,29.51983165,10.79423744,19,17,99,72,1.981235742,1
868.0078122,9.886691953,9.965027094,10.62754459,10.99158585,0.228693117,0.132912583,9.865178881,9.865178881,7.554386153,11.69634342,30.93608301,29.51935701,10.79423744,19,17,99,72,1.981235742,1
869.0078122,9.884625792,9.96476763,10.63146149,11.00590978,0.228891601,0.135861171,9.871060247,9.871060247,7.555743551,11.69497338,30.93512911,29.51885125,10.79423744,19,17,99,72,1.981235742,1
870.0078122,9.882026028,9.963457684,10.63396808,10.98849683,0.226918947,0.1389423,9.871836422,9.871836422,7.557105653,11.69369348,30.93391923,29.51826473,10.79861441,19,17,99,71,1.981235742,1
871.0078122,9.881225133,9.961063394,10.64998321,10.94021663,0.222809231,0.14164186,9.8659619,9.8659619,7.55834726,11.69242556,30.93289427,29.5178594,10.79861441,19,17,99,71,1.981235742,1
872.0078122,9.88221511,9.956855122,10.69195174,10.87586301,0.217252301,0.14343381,9.860310738,9.860310738,7.559495794,11.69114291,30.93181263,29.51737172,10.79861441,19,17,99,71,1.981235742,1
873.0078122,9.883335193,9.950726687,10.72774216,10.81352658,0.211687568,0.143863189,9.864255204,9.864255204,7.56060908,11.68988279,30.93073774,29.51694942,10.79861441,19,17,99,71,1.981235742,1
874.0078122,9.884541781,9.944519164,10.72679526,10.77348961,0.207566038,0.142732875,9.880295666,9.880295666,7.561685598,11.68862181,30.92961789,29.51642308,10.79861441,19,17,99,71,1.981235742,1
875.0078122,9.8867617,9.941556919,10.70670034,10.77413846,0.205466898,0.140264667,9.901318963,9.901318963,7.56276699,11.68752137,30.92840266,29.51596945,10.8005199,19,17,99,71,1.981235742,1
876.0078122,9.889538752,9.944636762,10.70138327,10.81272269,0.205114017,0.137064458,9.92184686,9.92184686,7.563771545,11.68648509,30.92717899,29.51558498,10.8005199,19,17,99,71,1.981235742,1
877.0078122,9.891618906,9.95302802,10.71547905,10.86448642,0.206072087,0.133904873,9.944170536,9.944170536,7.564642947,11.68549429,30.92599968,29.5152585,10.79620945,19,17,99,71,1.981235742,1
878.0078122,9.892359903,9.96242123,10.72895273,10.90240251,0.208159698,0.131525271,9.965762517,9.965762517,7.565559581,11.68463313,30.92478049,29.51498699,10.79620945,19,17,99,71,1.981235742,1
879.0078122,9.89141816,9.968342889,10.72718302,10.91340402,0.211121327,0.130467884,9.975218244,9.975218244,7.566995459,11.68413987,30.92338798,29.51467619,10.79620945,19,17,99,71,1.981235742,1
880.0078122,9.888837424,9.968781739,10.71584111,10.90130783,0.214282676,0.130846437,9.96813947,9.96813947,7.568641247,11.68388707,30.9220416,29.514417,10.79620945,19,17,99,71,1.981235742,1
881.0078122,9.885837481,9.965325937,10.71049299,10.88538614,0.216894613,0.132171431,9.951731036,9.951731036,7.570105056,11.68358709,30.92053564,29.51406992,10.79620945,19,17,99,71,1.981235742,1
882.0078122,9.884690769,9.961983368,10.71888281,10.89119719,0.218723904,0.133564525,9.934490652,9.934490652,7.571269109,11.68308468,30.91916339,29.51358327,10.78362619,19,17,99,71,1.981235742,1
883.0078122,9.886689252,9.96164462,10.73742405,10.9278679,0.219954877,0.134351745,9.922759165,9.922759165,7.57218394,11.68247192,30.91768521,29.51330746,10.78362619,19,17,99,71,1.981235742,1
884.0078122,9.890072325,9.963480329,10.7591014,10.97221612,0.220477887,0.134462815,9.918584664,9.918584664,7.572937619,11.68175393,30.91625748,29.51276986,10.78362619,19,17,99,71,1.981235742,1
885.0078122,9.891922236,9.963696371,10.77787241,10.98573851,0.219625271,0.134173438,9.917155175,9.917155175,7.573518119,11.68092957,30.91473625,29.51221852,10.78362619,19,17,99,71,1.981235742,1
886.0078122,9.891526645,9.959779749,10.78755454,10.95833894,0.216827864,0.133526566,9.912896636,9.912896636,7.573812116,11.6800075,30.91318655,29.51181688,10.78362619,19,17,99,71,1.981235742,1
887.0078122,9.890319108,9.953885456,10.78005665,10.92189989,0.21238658,0.132181915,9.904391882,9.904391882,7.57385676,11.68030704,30.91160988,29.51126853,10.76236796,19,17,99,71,1.981235742,1
888.0078122,9.889686354,9.949760988,10.75022843,10.90640926,0.207414417,0.129865638,9.89491595,9.89491595,7.573625799,11.67883374,30.91009148,29.51069683,10.76236796,19,17,99,71,1.981235742,1
889.0078122,9.889651126,9.947460027,10.70654357,10.90608828,0.203172759,0.126878019,9.892415751,9.892415751,7.573192339,11.67720877,30.90845611,29.51000787,10.73328508,19,17,99,71,1.981235742,1
890.0078122,9.889352162,9.944969309,10.672826,10.90288795,0.200436408,0.124088688,9.902289732,9.902289732,7.572502926,11.67548997,30.90679976,29.50926124,10.73328508,19,17,99,71,1.981235742,1
891.0078122,9.888567744,9.943048531,10.670947,10.89670734,0.199252343,0.122475463,9.917820517,9.917820517,7.571541555,11.67365119,30.90520798,29.50860717,10.73328508,19,17,99,71,1.981235742,1
892.0078122,9.888477762,9.944212164,10.69774267,10.89123062,0.198991963,0.12262151,9.92445224,9.92445224,7.57038146,11.67165597,30.90361196,29.50777563,10.69787487,19,17,99,71,1.981235742,1
893.0078122,9.89024358,9.94903052,10.73038387,10.87450902,0.198732365,0.124496653,9.916050431,9.916050431,7.569010969,11.66950619,30.90204409,29.50686051,10.69787487,19,17,99,71,1.981235742,1
894.0078122,9.893442908,9.956137826,10.75636488,10.84164031,0.197914848,0.127542127,9.90110425,9.90110425,7.567194649,11.66703844,30.90041525,29.50589104,10.69787487,19,17,99,71,1.981235742,1
895.0078122,9.896301057,9.963421199,10.7801718,10.8125235,0.196835573,0.130914512,9.891290636,9.891290636,7.564762407,11.66413282,30.89873797,29.50495001,10.65768037,19,17,99,71,1.981235742,1
896.0078122,9.896791171,9.967769215,10.80117274,10.80387789,0.196464876,0.133794703,9.891540266,9.891540266,7.562068461,11.66100397,30.89710023,29.5039438,10.65768037,19,17,99,71,1.981235742,1
897.0078122,9.894629958,9.966893273,10.80369786,10.80678366,0.197601351,0.135687038,9.900221947,9.900221947,7.559260208,11.65773865,30.8955878,29.50287342,10.65768037,19,17,99,71,1.981235742,1
898.0078122,9.892014671,9.962584021,10.77426051,10.80431102,0.200036607,0.136554379,9.910309793,9.910309793,7.556210273,11.65419354,30.89382871,29.50171788,10.61386611,19,17,99,71,1.981235742,1
899.0078122,9.891039845,9.959755124,10.72340132,10.79396315,0.202612196,0.13671446,9.914046534,9.914046534,7.552941174,11.65048748,30.89207745,29.50044977,10.61386611,19,17,99,71,1.981235742,1
900.0078122,9.891878257,9.961674995,10.68291263,10.78790308,0.204313754,0.136645569,9.914496245,9.914496245,7.54958183,11.64669722,30.89033648,29.49926988,10.61386611,19,17,99,71,1.981235742,1
901.0078122,9.893699296,9.96738239,10.6716207,10.79976884,0.205347324,0.136855789,9.924511147,9.924511147,7.546061925,11.64283093,30.88866943,29.497918,10.56705815,19,17,99,71,1.981235742,1
902.0078122,9.895180187,9.973500218,10.67315922,10.83152551,0.206890904,0.137739723,9.946579701,9.946579701,7.542375805,11.63886033,30.88687245,29.49643972,10.56705815,19,17,99,71,1.981235742,1
903.0078122,9.894635497,9.976677436,10.66288382,10.86700439,0.209655075,0.13926926,9.964948514,9.964948514,7.538407964,11.63469145,30.88515696,29.49481794,10.56705815,19,17,99,71,1.981235742,1
904.0078122,9.891518682,9.975309871,10.64209714,10.88069653,0.212831039,0.140691453,9.963020669,9.963020669,7.534161,11.63031463,30.88343926,29.49323282,10.56705815,19,17,99,71,1.981235742,1
905.0078122,9.887695117,9.971262671,10.63327123,10.86881689,0.214694821,0.140737083,9.941244476,9.941244476,7.529713322,11.62576114,30.8817761,29.49159378,10.56705815,19,17,99,71,1.981235742,1
906.0078122,9.885954255,9.968215234,10.65103561,10.86272237,0.214202369,0.138504874,9.915267283,9.915267283,7.524963695,11.62096371,30.8801077,29.49001097,10.51743722,18,17,99,70,1.981235742,1
907.0078122,9.886829031,9.967145389,10.68382444,10.88644383,0.211862683,0.134310947,9.89865291,9.89865291,7.519877094,11.61588508,30.87855066,29.48842475,10.51743722,18,17,99,70,1.981235742,1
908.0078122,9.888125296,9.96550474,10.70572051,10.92496794,0.2091728,0.129581388,9.893557774,9.893557774,7.514588344,11.61060756,30.87707519,29.48664223,10.51743722,18,17,99,70,1.981235742,1
909.0078122,9.887848622,9.961543696,10.70453402,10.95181529,0.207364692,0.12582307,9.89522763,9.89522763,7.509149095,11.60515849,30.87556174,29.48487107,10.51743722,18,17,99,70,1.981235742,1
910.0078122,9.886508093,9.957432467,10.69401354,10.95657722,0.20657415,0.123674055,9.894108742,9.894108742,7.503968629,11.59980991,30.87400025,29.48319754,10.51743722,18,17,99,70,1.981235742,1
911.0078122,9.886103066,9.956121651,10.69704852,10.94454102,0.206031448,0.122845936,9.881692371,9.881692371,7.499621355,11.59479718,30.87225915,29.48134316,10.46500243,18,17,99,70,1.981235742,1
912.0078122,9.88708471,9.957067319,10.71886919,10.92974697,0.205082387,0.122787903,9.863392355,9.863392355,7.49558677,11.58989191,30.87067299,29.47941911,10.46500243,18,17,99,70,1.981235742,1
913.0078122,9.887826227,9.957895409,10.74240494,10.92020357,0.204081921,0.123278349,9.853438241,9.853438241,7.49134872,11.58484295,30.86905614,29.47757713,10.46500243,18,17,99,70,1.981235742,1
914.0078122,9.887368766,9.957850699,10.75058935,10.90777671,0.204193172,0.124417234,9.854400908,9.854400908,7.486933078,11.57963299,30.86760835,29.47572839,10.40989416,18,17,99,70,1.981235742,1
915.0078122,9.88653592,9.957421139,10.74368124,10.88493375,0.206225161,0.126196235,9.853678493,9.853678493,7.481795631,11.57387616,30.86617393,29.47387824,10.40989416,18,17,99,70,1.981235742,1
916.0078122,9.886250763,9.95691679,10.73064513,10.86426286,0.209638042,0.128231844,9.841986339,9.841986339,7.476235536,11.56781623,30.86475484,29.47192576,10.40989416,18,17,99,70,1.981235742,1
917.0078122,9.886377195,9.956632513,10.72025272,10.86772644,0.212715528,0.129947349,9.825621835,9.825621835,7.470892593,11.56179529,30.86333034,29.47002365,10.35267507,18,16,99,70,1.981235742,1
918.0078122,9.886310598,9.957019531,10.7244279,10.89718308,0.213755426,0.130958552,9.815205086,9.815205086,7.465952354,11.55605648,30.86187258,29.4680301,10.35267507,18,16,99,70,1.981235742,1
919.0078122,9.886214885,9.957874496,10.74721487,10.92726597,0.212224887,0.131282795,9.812747127,9.812747127,7.461351355,11.55057935,30.86049767,29.46624017,10.29449904,18,16,99,70,1.981235742,1
920.0078122,9.886725108,9.957726636,10.77223857,10.93581144,0.208952023,0.131287857,9.816780798,9.816780798,7.457000708,11.54527964,30.85922677,29.4644701,10.29449904,18,16,99,70,1.981235742,1
921.0078122,9.887767097,9.954728047,10.77782072,10.92412714,0.205405117,0.131535877,9.82973602,9.82973602,7.452775089,11.54008256,30.8578615,29.46272432,10.29449904,18,16,99,70,1.981235742,1
922.0078122,9.88940163,9.948804726,10.75829052,10.8987655,0.202836032,0.132638894,9.85369583,9.85369583,7.448709284,11.53501596,30.85646753,29.46092335,10.2371308,18,16,99,70,1.981235742,1
923.0078122,9.89212516,9.942326702,10.72608311,10.86196546,0.201858909,0.135097862,9.8841541,9.8841541,7.445039598,11.53014184,30.85516035,29.45916435,10.2371308,18,16,99,70,1.981235742,1
924.0078122,9.894919138,9.937860145,10.6950111,10.82181294,0.202479949,0.139037096,9.910706072,9.910706072,7.441720693,11.52544995,30.85396059,29.45751112,10.2371308,18,16,99,70,1.981235742,1
925.0078122,9.895507441,9.93601599,10.66525245,10.78655228,0.204355556,0.14387159,9.922492924,9.922492924,7.438546977,11.5209245,30.85269192,29.4557372,10.2371308,18,16,99,70,1.981235742,1
926.0078122,9.892865387,9.93564619,10.63311557,10.75999953,0.207024296,0.14821063,9.914005978,9.914005978,7.435857576,11.51691334,30.85142655,29.45397909,10.2371308,18,16,99,70,1.981235742,1
927.0078122,9.888370655,9.935178973,10.60616764,10.7517206,0.20994457,0.150375254,9.887653872,9.887653872,7.434004878,11.51367953,30.85019668,29.45237548,10.2371308,18,16,99,70,1.981235742,1
928.0078122,9.885075076,9.93392533,10.59455772,10.7712159,0.212428753,0.149311922,9.852778821,9.852778821,7.432428294,11.51071545,30.84897226,29.45077133,10.1828075,17,16,99,70,1.981235742,1
929.0078122,9.88504143,9.932597586,10.59476232,10.81224395,0.213876049,0.145263408,9.823433393,9.823433393,7.430764258,11.50774778,30.84767006,29.44913712,10.1828075,17,16,99,70,1.981235742,1
930.0078122,9.887018312,9.932140457,10.59130584,10.85889524,0.214176844,0.139562703,9.811662639,9.811662639,7.429236149,11.5048573,30.84646746,29.44778609,10.1828075,17,16,99,70,1.981235742,1
931.0078122,9.888123702,9.932532951,10.57335489,10.90127035,0.213738849,0.133817226,9.818915691,9.818915691,7.428113146,11.50221292,30.84527067,29.44638486,10.1828075,17,16,99,70,1.981235742,1
932.0078122,9.887406367,9.933931061,10.54924554,10.93565264,0.213023255,0.129178278,9.835563258,9.835563258,7.427436835,11.49985574,30.84399651,29.44500624,10.1828075,17,16,99,70,1.981235742,1
933.0078122,9.886128676,9.937026696,10.53857028,10.95891932,0.212198732,0.126140379,9.849907223,9.849907223,7.426999015,11.49772163,30.8427999,29.44366034,10.13395878,17,16,99,70,1.981235742,1
934.0078122,9.884985483,9.940775363,10.54566957,10.96904243,0.211241146,0.124795606,9.859820848,9.859820848,7.426748417,11.49581362,30.84153526,29.44218173,10.13395878,17,16,99,70,1.981235742,1
935.0078122,9.88371999,9.943405229,10.55770028,10.96723903,0.210124841,0.125153159,9.872772694,9.872772694,7.426671265,11.49398269,30.84037212,29.4408331,10.13395878,17,16,99,70,1.981235742,1
936.0078122,9.883305751,9.945969328,10.57132586,10.95564032,0.208867794,0.127183104,9.888842038,9.888842038,7.427287432,11.49255042,30.83924631,29.4394879,10.09283034,17,16,99,70,1.981235742,1
937.0078122,9.885071016,9.950428801,10.59864033,10.9336367,0.207606494,0.130595245,9.894013262,9.894013262,7.428507295,11.49143068,30.83796018,29.43825948,10.09283034,17,16,99,70,1.981235742,1
938.0078122,9.888139881,9.955352731,10.6462162,10.90405609,0.206710041,0.134688031,9.879861369,9.879861369,7.429821289,11.4904684,30.83667142,29.43694751,10.09283034,17,16,99,70,1.981235742,1
939.0078122,9.890518124,9.95751548,10.70252952,10.88094024,0.206706891,0.138519955,9.856048753,9.856048753,7.430642527,11.48926427,30.83546354,29.43572197,10.09283034,17,16,99,70,1.981235742,1
940.0078122,9.891524879,9.956098719,10.74524218,10.87959193,0.208052207,0.141261076,9.837040327,9.837040327,7.431235463,11.48797977,30.8342432,29.43452648,10.06108479,17,16,99,70,1.981235742,1
941.0078122,9.89166549,9.952581777,10.75530138,10.89727272,0.210957223,0.142424903,9.827909621,9.827909621,7.43263095,11.48726678,30.83309493,29.43330758,10.06108479,17,16,99,70,1.981235742,1
942.0078122,9.891572328,9.9486729,10.72958121,10.91934838,0.215202416,0.141897441,9.825126161,9.825126161,7.435435979,11.48749812,30.83184275,29.43218104,10.06108479,17,16,99,70,1.981235742,1
943.0078122,9.891246446,9.946055646,10.68666527,10.94245811,0.219852131,0.140012726,9.824395183,9.824395183,7.438862217,11.48822172,30.83058184,29.43096893,10.03947277,17,15,99,70,1.981235742,1
944.0078122,9.889817797,9.945597686,10.65356304,10.96431207,0.22325282,0.137571648,9.824360162,9.824360162,7.442757531,11.48955703,30.82931325,29.42984811,10.03947277,17,15,99,70,1.981235742,1
945.0078122,9.88731565,9.945641347,10.64314407,10.96640814,0.223893026,0.13549591,9.824071193,9.824071193,7.448498701,11.49247035,30.82814426,29.42872438,10.03947277,17,15,99,70,1.981235742,1
946.0078122,9.885902111,9.943331685,10.64738465,10.94211294,0.22176185,0.134202664,9.819753061,9.819753061,7.45543532,11.49671182,30.82701215,29.42759778,10.02766415,17,15,99,70,1.981235742,1
947.0078122,9.887141106,9.938924503,10.64640005,10.92154541,0.218810171,0.13337682,9.809381032,9.809381032,7.46358596,11.50178091,30.82580436,29.42644591,10.02766415,17,15,99,70,1.981235742,1
948.0078122,9.889409983,9.93647523,10.62208205,10.93787947,0.217665357,0.132481902,9.800677572,9.800677572,7.472732195,11.50722723,30.82458673,29.42530067,10.02766415,17,15,99,70,1.981235742,1
949.0078122,9.890026433,9.938431513,10.57306693,10.97861592,0.21953412,0.131417965,9.805675525,9.805675525,7.481755184,11.51272551,30.82331645,29.42410929,10.02766415,17,15,99,70,1.981235742,1
950.0078122,9.888663018,9.942386451,10.52240682,11.00031828,0.223164099,0.130572504,9.825873973,9.825873973,7.49075356,11.51845063,30.82191441,29.4227816,10.02766415,17,15,99,70,1.981235742,1
951.0078122,9.887089408,9.944455103,10.50329206,10.98870478,0.225791424,0.130321804,9.847672696,9.847672696,7.501326685,11.52581115,30.82056032,29.42155542,10.02429649,17,15,99,70,1.981235742,1
952.0078122,9.886616078,9.943200328,10.52820259,10.96740759,0.225210334,0.130646736,9.852738343,9.852738343,7.513634281,11.5349845,30.81919187,29.4203968,10.02429649,17,15,99,70,1.981235742,1
953.0078122,9.886741892,9.939760777,10.57545674,10.95543759,0.221190423,0.131218223,9.834950247,9.834950247,7.526606112,11.545362,30.81774933,29.41906955,10.02429649,17,15,99,70,1.981235742,1
954.0078122,9.885353255,9.93599299,10.61193347,10.94875378,0.215201473,0.131686951,9.809071719,9.809071719,7.539555404,11.55590554,30.81641796,29.41778336,10.02429649,17,15,99,70,1.981235742,1
955.0078122,9.881187287,9.93307487,10.62584011,10.93733649,0.209131631,0.131791209,9.796048794,9.796048794,7.552696946,11.56659391,30.81489987,29.41647546,10.02429649,17,15,99,70,1.981235742,1
956.0078122,9.876973526,9.931702302,10.62939925,10.92073071,0.204280721,0.131312326,9.800186775,9.800186775,7.566280732,11.57762843,30.81358134,29.41514694,10.02429649,17,15,99,70,1.981235742,1
957.0078122,9.877077576,9.932709598,10.63188769,10.90421145,0.201262875,0.130126628,9.809218811,9.809218811,7.580416268,11.58916355,30.81213035,29.41377648,10.02724454,17,15,99,70,1.981235742,1
958.0078122,9.881403458,9.936119968,10.62353796,10.89422737,0.200202832,0.128392055,9.811172995,9.811172995,7.595114355,11.60126146,30.81081867,29.41231356,10.02724454,17,15,99,70,1.981235742,1
959.0078122,9.885422073,9.940537099,10.5966184,10.90143492,0.20061604,0.126642505,9.804488123,9.804488123,7.61031517,11.61384681,30.80943926,29.41090612,10.02724454,17,15,99,70,1.981235742,1
960.0078122,9.886148992,9.943900707,10.56923528,10.9259191,0.201336243,0.125680743,9.795777198,9.795777198,7.625981816,11.6269957,30.8080577,29.40937805,10.02724454,17,15,99,70,1.981235742,1
961.0078122,9.884970814,9.94502416,10.56940706,10.94383812,0.201149815,0.126344671,9.790823259,9.790823259,7.642140218,11.640692,30.80667596,29.40782448,10.03405741,17,15,99,70,1.981235742,1
962.0078122,9.884527958,9.944949896,10.60748683,10.93479139,0.199802093,0.129125675,9.789136793,9.789136793,7.658745118,11.65493493,30.8053797,29.40633022,10.03405741,17,15,99,70,1.981235742,1
963.0078122,9.885189055,9.945195552,10.6702982,10.90616412,0.198306127,0.133649855,9.788144245,9.788144245,7.67583774,11.66975013,30.8039715,29.40480327,10.03405741,17,15,99,70,1.981235742,1
964.0078122,9.885907315,9.946086696,10.72882695,10.87858012,0.198189486,0.138482901,9.789037025,9.789037025,7.693416888,11.68517132,30.8024957,29.40322351,10.04247053,18,15,99,70,1.981235742,1
965.0078122,9.886341597,9.947713992,10.75650765,10.86706823,0.200372078,0.14180761,9.793630376,9.793630376,7.711413723,11.70116453,30.80110075,29.40154158,10.04247053,18,15,99,70,1.981235742,1
966.0078122,9.886726987,9.948937445,10.75154175,10.87042002,0.204474522,0.142606933,9.798529146,9.798529146,7.729686104,11.71761097,30.79963339,29.39982294,10.04247053,18,15,99,70,1.981235742,1
967.0078122,9.887218619,9.947061382,10.73396529,10.8699775,0.20891678,0.141164221,9.799529869,9.799529869,7.748208674,11.73447816,30.79824083,29.39798593,10.05088592,18,15,99,70,1.981235742,1
968.0078122,9.887627407,9.942132679,10.71802979,10.85600487,0.211697279,0.138420751,9.797596226,9.797596226,7.767375553,11.75222467,30.79683891,29.39620959,10.05088592,18,15,99,70,1.981235742,1
969.0078122,9.887480347,9.937970251,10.70156937,10.84770169,0.211541859,0.13514277,9.793586036,9.793586036,7.786998613,11.77064931,30.79546135,29.39442457,10.05872734,18,15,99,71,1.981235742,1
970.0078122,9.886708369,9.936861728,10.67824326,10.86221797,0.208622893,0.13181027,9.785345615,9.785345615,7.806496663,11.78916326,30.79399594,29.39251799,10.05872734,18,15,99,71,1.981235742,1
971.0078122,9.885881748,9.937304195,10.6460205,10.88333221,0.204320922,0.128948596,9.776224229,9.776224229,7.825034897,11.80726385,30.79270521,29.39065493,10.05872734,18,15,99,71,1.981235742,1
972.0078122,9.885303767,9.937196813,10.60743886,10.88339202,0.200239329,0.127130826,9.777141484,9.777141484,7.843071791,11.82515089,30.79129738,29.3887239,10.06660184,18,15,99,71,1.981235742,1
973.0078122,9.884142389,9.935445449,10.56536866,10.85498358,0.197279249,0.126587611,9.795774123,9.795774123,7.861188528,11.84312234,30.78992266,29.38676021,10.06660184,18,15,99,71,1.981235742,1
974.0078122,9.881701035,9.931512613,10.52044516,10.81257593,0.195395486,0.126964019,9.828630401,9.828630401,7.879268985,11.86104158,30.78854307,29.38476615,10.06660184,18,15,99,71,1.981235742,1
975.0078122,9.879461738,9.926801259,10.47839464,10.78056624,0.193994348,0.127558308,9.861863737,9.861863737,7.896905737,11.87862313,30.78719763,29.38276668,10.06660184,18,15,99,71,1.981235742,1
976.0078122,9.879574118,9.924484333,10.45317464,10.77636683,0.192524361,0.127881244,9.878981684,9.878981684,7.914263562,11.8959912,30.78574384,29.38079379,10.07622911,18,15,99,71,1.981235742,1
