Time (s),Waist Acceleration,Chest Acceleration,Left Ankle Acceleration,right Ankle Acceleration,EMG_magnitude_left,EMG_magnitude_right,left wrist Acceleration,right wrist Acceleration,left wrist electrodermal,right wrist electrodermal,left wrist Temperature,right wrist Temperature,VO2,Breath Frequency,Minute Ventilation,SpO2,Heart Rate,Energy expenditures (W/kg) ,Activity Code
360,9.881434087,9.907992655,10.37697318,10.5563828,0.236834666,0.218084094,9.77037023,9.77037023,0.154150865,0.123130313,32.5720055,33.11841799,6.595555346,18,12,100,79,1.88987581,1
361,9.893782941,9.935136662,10.82569179,10.89003804,0.257190947,0.233938493,9.78778357,9.78778357,0.154169689,0.123168882,32.5714547,33.11745584,6.595555346,18,12,100,79,1.88987581,1
362,9.906330873,9.967682826,11.34503224,11.29126893,0.275077577,0.244958366,9.793522234,9.793522234,0.154184362,0.123205464,32.57082898,33.11654411,10.76507785,21,19,100,87,1.88987581,1
363,9.917097748,9.999778439,11.83069403,11.73517771,0.288367501,0.251886632,9.787375519,9.787375519,0.154201157,0.123245426,32.5702205,33.1157034,10.76507785,21,19,100,87,1.88987581,1
364,9.923103867,10.02450243,12.16650741,12.13230225,0.296400293,0.255063181,9.774731394,9.774731394,0.154212463,0.12328465,32.56964552,33.11489003,10.76507785,21,19,100,87,1.88987581,1
365,9.923267709,10.03895231,12.31156733,12.38420787,0.30002702,0.254713577,9.764255572,9.764255572,0.154220983,0.123322986,32.56904438,33.11409798,10.77606575,21,19,100,88,1.88987581,1
366,9.920318217,10.0460003,12.33310238,12.4662076,0.300933862,0.251621624,9.759617956,9.759617956,0.154232539,0.123356166,32.5684958,33.11335787,10.77606575,21,19,100,88,1.88987581,1
367,9.918228623,10.05002543,12.32204435,12.43940268,0.300779008,0.247280121,9.7575646,9.7575646,0.154243844,0.12339016,32.56793454,33.1125865,10.79815778,21,19,100,88,1.88987581,1
368,9.918308691,10.05277577,12.31956589,12.3857426,0.3006743,0.243400754,9.754535109,9.754535109,0.154252382,0.123423031,32.5674152,33.11179597,10.79815778,21,19,100,88,1.88987581,1
369,9.918983695,10.05376059,12.33136085,12.34358786,0.301228455,0.241221861,9.751570811,9.751570811,0.154258389,0.123456454,32.56686005,33.11114347,10.79815778,21,19,100,88,1.88987581,1
370,9.918805771,10.05237625,12.35600316,12.31043487,0.302919591,0.241073542,9.751976907,9.751976907,0.154259856,0.123488933,32.56630448,33.110561,10.83132777,21,18,100,88,1.88987581,1
371,9.918096242,10.04944929,12.38435914,12.29207893,0.30624794,0.242398201,9.756189902,9.756189902,0.154262899,0.12351716,32.56570805,33.11003846,10.83132777,21,18,100,88,1.88987581,1
372,9.917549036,10.04701721,12.39849266,12.31181955,0.311304375,0.244226517,9.761587579,9.761587579,0.154261652,0.123547969,32.56515663,33.10960826,10.83132777,21,18,100,88,1.88987581,1
373,9.916996283,10.04639103,12.38574489,12.3619474,0.317114769,0.245889822,9.767074615,9.767074615,0.154257404,0.123575661,32.56456662,33.10920448,10.87499528,21,18,100,89,1.88987581,1
374,9.916223771,10.04777008,12.36375074,12.40176158,0.321815273,0.24748406,9.773935938,9.773935938,0.154254627,0.123602484,32.56399988,33.10869432,10.87499528,21,18,100,89,1.88987581,1
375,9.915490501,10.05070359,12.37240719,12.42346721,0.323829759,0.249545929,9.782778593,9.782778593,0.154247019,0.123629414,32.56340375,33.10824247,10.87499528,21,18,100,89,1.88987581,1
376,9.914824069,10.05318637,12.41615509,12.45736967,0.322940669,0.252210033,9.792934577,9.792934577,0.154240398,0.123652608,32.56281455,33.10787923,10.92763301,21,18,100,89,1.88987581,1
377,9.914128473,10.05278134,12.44796418,12.50738204,0.320177427,0.254815828,9.802351353,9.802351353,0.154229036,0.123670639,32.56229662,33.10751728,10.92763301,21,18,100,89,1.88987581,1
378,9.913743734,10.04952636,12.43353531,12.54303526,0.31686469,0.256443573,9.806366663,9.806366663,0.154217901,0.123692238,32.56171397,33.10706699,10.92763301,21,18,100,89,1.88987581,1
379,9.913868238,10.04541804,12.39452747,12.55258054,0.313919432,0.256760196,9.800746471,9.800746471,0.154204963,0.123710001,32.56111342,33.10668407,10.98656979,20,18,100,90,1.88987581,1
380,9.914281924,10.04151984,12.36765502,12.55354124,0.311795762,0.256278408,9.787157585,9.787157585,0.154191835,0.123727879,32.56057796,33.10639603,10.98656979,20,18,100,90,1.88987581,1
381,9.914874678,10.03727176,12.35233616,12.55311678,0.310657956,0.255826872,9.772268515,9.772268515,0.154174055,0.123743726,32.56003599,33.10614965,10.98656979,20,18,100,90,1.88987581,1
382,9.915373895,10.03245307,12.32762403,12.53614488,0.310402119,0.255763779,9.761363232,9.761363232,0.154155292,0.123756028,32.55950055,33.1059575,11.04810565,20,18,100,91,1.88987581,1
383,9.91534203,10.02899835,12.29632927,12.49046725,0.310639272,0.255626567,9.756270976,9.756270976,0.154138323,0.123769122,32.55887911,33.1058319,11.04810565,20,18,100,91,1.88987581,1
384,9.914916525,10.02943729,12.2783509,12.43128303,0.310914854,0.25449224,9.757865014,9.757865014,0.154118503,0.123782182,32.55834474,33.10567842,11.04810565,20,18,100,91,1.88987581,1
385,9.914610452,10.033605,12.2785736,12.39242207,0.311046689,0.2516878,9.76506157,9.76506157,0.1541004,0.123793282,32.55779878,33.10556126,11.10795372,20,18,100,91,1.88987581,1
386,9.914778885,10.03918837,12.28915595,12.38689539,0.31113577,0.24728934,9.772721677,9.772721677,0.154073726,0.123802509,32.55726772,33.1055629,11.10795372,20,18,100,91,1.88987581,1
387,9.915513628,10.04433927,12.30429166,12.39944189,0.311234527,0.242140687,9.774572447,9.774572447,0.15404762,0.12381301,32.55670579,33.10562242,11.10795372,20,18,100,91,1.88987581,1
388,9.916515756,10.04774493,12.3181541,12.40968724,0.311220144,0.237515412,9.768438767,9.768438767,0.154019681,0.123823137,32.55612645,33.1056523,11.16191609,20,19,100,92,1.88987581,1
389,9.917528972,10.0483763,12.33202851,12.40071377,0.311086088,0.234580739,9.758853568,9.758853568,0.15399376,0.123838776,32.55567682,33.1056455,11.16191609,20,19,100,92,1.88987581,1
390,9.918748342,10.04631539,12.35676449,12.37039582,0.31105623,0.233853712,9.75363548,9.75363548,0.153963485,0.123855442,32.55533301,33.10564559,11.16191609,20,19,100,92,1.88987581,1
391,9.920032148,10.04259658,12.38978515,12.33677287,0.311111763,0.23497677,9.75622185,9.75622185,0.153934468,0.123872803,32.55486976,33.10565303,11.20662301,20,19,100,92,1.88987581,1
392,9.92046206,10.03840693,12.41304438,12.3208232,0.310611858,0.236995259,9.761819418,9.761819418,0.153903355,0.123887597,32.55429268,33.10566829,11.20662301,20,19,100,92,1.88987581,1
393,9.91930816,10.03525856,12.41869093,12.33792555,0.308857049,0.238883378,9.762799874,9.762799874,0.153871865,0.123904021,32.55366844,33.10573756,11.20662301,20,19,100,92,1.88987581,1
394,9.917164456,10.03441058,12.41188959,12.38801417,0.306079839,0.239939108,9.757922728,9.757922728,0.153842897,0.123922417,32.55308607,33.10582391,11.24014213,20,19,100,92,1.88987581,1
395,9.915886755,10.03500862,12.39292585,12.44084482,0.303464461,0.239941881,9.753262246,9.753262246,0.153812032,0.123939104,32.55250597,33.10592291,11.24014213,20,19,100,92,1.88987581,1
396,9.916638163,10.03527189,12.3630032,12.4675438,0.301968463,0.239095673,9.753743799,9.753743799,0.153785778,0.123955136,32.55199675,33.10603863,11.24014213,20,19,100,92,1.88987581,1
397,9.91843966,10.03514459,12.33989697,12.4753334,0.301319952,0.237763084,9.757825188,9.757825188,0.153754993,0.123969021,32.55150578,33.10618921,11.26230049,20,19,100,93,1.88987581,1
398,9.919805181,10.03530283,12.34378682,12.48007722,0.300312546,0.236179546,9.760645798,9.760645798,0.153725465,0.123983822,32.55107617,33.10632373,11.26230049,20,19,100,93,1.88987581,1
399,9.920570331,10.03606621,12.37884069,12.47755409,0.297975687,0.234463905,9.759804856,9.759804856,0.15369224,0.123997385,32.55068014,33.1065165,11.26230049,20,19,100,93,1.88987581,1
400,9.921189094,10.03846144,12.43452473,12.45811919,0.294399286,0.232829427,9.757065699,9.757065699,0.15366043,0.124010368,32.55028904,33.1065888,11.27464285,20,19,100,93,1.88987581,1
401,9.921724469,10.04315665,12.48703551,12.42413692,0.2905815,0.231618469,9.754719476,9.754719476,0.15362489,0.124025365,32.54975819,33.10659171,11.27464285,20,19,100,93,1.88987581,1
402,9.921921491,10.04811632,12.50459475,12.38597915,0.287643833,0.230999294,9.75384157,9.75384157,0.153592594,0.124039238,32.54926179,33.10669008,11.27464285,20,19,100,93,1.88987581,1
403,9.921441898,10.04988778,12.473142,12.35022807,0.28615181,0.230653046,9.756452197,9.756452197,0.153555769,0.124052552,32.5486763,33.10687977,11.28004826,20,19,100,93,1.88987581,1
404,9.920349993,10.04773521,12.41778112,12.32457468,0.285922845,0.229859219,9.764538102,9.764538102,0.153526239,0.124062042,32.54813852,33.10703265,11.28004826,20,19,100,93,1.88987581,1
405,9.919216257,10.04449779,12.37848749,12.32785276,0.286237396,0.227998038,9.77646317,9.77646317,0.153495411,0.124077568,32.54767972,33.10723293,11.28004826,20,19,100,93,1.88987581,1
406,9.918508051,10.04274014,12.36924179,12.36711574,0.286246942,0.225078527,9.787150252,9.787150252,0.153462021,0.124095052,32.54720745,33.10737341,11.28211113,20,19,100,93,1.88987581,1
407,9.918406019,10.04258596,12.38088435,12.41891647,0.285371194,0.221856651,9.791613097,9.791613097,0.153429064,0.124112351,32.54672759,33.10759008,11.28211113,20,19,100,93,1.88987581,1
408,9.918432138,10.04358791,12.40233892,12.45925783,0.283467345,0.219423445,9.788189365,9.788189365,0.153396311,0.124129516,32.54620205,33.1079274,11.28211113,20,19,100,93,1.88987581,1
409,9.917447925,10.04564585,12.42515416,12.48869574,0.280764224,0.218564697,9.778817701,9.778817701,0.15336408,0.124145611,32.54579117,33.10822936,11.28444204,20,19,100,93,1.88987581,1
410,9.915396595,10.04777428,12.4480697,12.51352029,0.277786235,0.219405404,9.766042825,9.766042825,0.153331363,0.124154558,32.54539297,33.10839762,11.28444204,20,19,100,93,1.88987581,1
411,9.913830009,10.04826511,12.4738325,12.53030263,0.275300163,0.221597184,9.752360294,9.752360294,0.153301607,0.124167455,32.54507273,33.10864463,11.28444204,20,19,100,93,1.88987581,1
412,9.913695138,10.04606686,12.49411696,12.53953523,0.274014724,0.224766389,9.741823325,9.741823325,0.153267787,0.124178151,32.54476306,33.10895068,11.29004513,20,19,100,93,1.88987581,1
413,9.913912834,10.0414921,12.49183691,12.54971843,0.274090117,0.228656225,9.738539632,9.738539632,0.153235595,0.124184934,32.54442238,33.10927202,11.29004513,20,19,100,93,1.88987581,1
414,9.912736169,10.03642267,12.46383562,12.56154471,0.274919785,0.232904835,9.743850673,9.743850673,0.153197571,0.124200462,32.54402168,33.10956227,11.29004513,20,19,100,93,1.88987581,1
415,9.910254185,10.03340705,12.43449951,12.56398737,0.275577542,0.236870411,9.755204561,9.755204561,0.153168407,0.124207767,32.5436609,33.10985813,11.29004513,20,19,100,93,1.88987581,1
416,9.908351099,10.03369925,12.43205358,12.54730921,0.275564637,0.239884241,9.767580158,9.767580158,0.153139233,0.124215095,32.54325038,33.11020951,11.30088988,20,19,100,93,1.88987581,1
417,9.908112095,10.03627193,12.45786634,12.51873243,0.275194212,0.241688129,9.777520568,9.777520568,0.153106786,0.124221078,32.542888,33.11052699,11.30088988,20,19,100,93,1.88987581,1
418,9.909119216,10.0389332,12.49595472,12.50223817,0.275297536,0.242506289,9.7852929,9.7852929,0.153080268,0.124227662,32.54256184,33.11080164,11.30088988,20,19,100,93,1.88987581,1
419,9.910412834,10.04051157,12.5282526,12.51036402,0.276464262,0.242650694,9.79087104,9.79087104,0.153050861,0.124229812,32.54240246,33.11109695,11.30088988,20,19,100,93,1.88987581,1
420,9.91134768,10.04170258,12.53659607,12.52609984,0.278355046,0.242142697,9.78990116,9.78990116,0.153025482,0.124233231,32.54219234,33.11142706,11.31773109,20,19,100,93,1.88987581,1
421,9.912074972,10.04305247,12.51920684,12.52772686,0.279659279,0.240766407,9.777801656,9.777801656,0.153004718,0.124230914,32.54200221,33.11168444,11.31773109,20,19,100,93,1.88987581,1
422,9.912590509,10.04329218,12.49681693,12.51527909,0.278879139,0.238421412,9.757631847,9.757631847,0.152974865,0.124231208,32.54178728,33.11189164,11.31773109,20,19,100,93,1.88987581,1
423,9.912612997,10.04185407,12.4886561,12.50186577,0.27541053,0.235366121,9.740671564,9.740671564,0.152943137,0.124233312,32.5415857,33.11213038,11.34016503,20,19,100,93,1.88987581,1
424,9.912533218,10.04121544,12.49092875,12.49607078,0.270063359,0.232198431,9.737466552,9.737466552,0.152912501,0.124229924,32.54140289,33.11241259,11.34016503,20,19,100,93,1.88987581,1
425,9.912468821,10.0435533,12.48014988,12.4969118,0.264635253,0.229713496,9.748711565,9.748711565,0.15288382,0.124245788,32.54121168,33.11264342,11.3668605,20,19,100,92,1.88987581,1
426,9.911869385,10.04688805,12.44107375,12.4984488,0.261033979,0.228767179,9.764217201,9.764217201,0.15285492,0.124393206,32.54097975,33.11288666,11.3668605,20,19,100,92,1.88987581,1
427,9.910666749,10.04756719,12.39075061,12.50554196,0.260430822,0.229925454,9.772082879,9.772082879,0.152830597,0.124442207,32.54074635,33.11324621,11.3668605,20,19,100,92,1.88987581,1
428,9.909092917,10.04483021,12.35829445,12.53195328,0.262877337,0.232983478,9.770352278,9.770352278,0.152802575,0.124483655,32.54061403,33.11360867,11.39588251,20,19,100,92,1.88987581,1
429,9.907659816,10.04082322,12.34719147,12.56435571,0.267486086,0.236842633,9.765949583,9.765949583,0.152770774,0.124525969,32.54045928,33.11384744,11.39588251,20,19,100,92,1.88987581,1
430,9.907614311,10.03803253,12.34249918,12.55747546,0.273053634,0.240150395,9.762856103,9.762856103,0.152748985,0.124565768,32.5403823,33.11412203,11.39588251,20,19,100,92,1.88987581,1
431,9.909668437,10.0374574,12.34526581,12.49488871,0.27863718,0.24220452,9.758635383,9.758635383,0.152720824,0.124608729,32.54031807,33.11425299,11.42503367,20,19,100,92,1.88987581,1
432,9.912609683,10.03782267,12.36420651,12.43189214,0.283605215,0.243117877,9.752837068,9.752837068,0.152696037,0.124657505,32.54026055,33.11433657,11.42503367,20,19,100,92,1.88987581,1
433,9.913907505,10.03718518,12.38185141,12.44187693,0.287265391,0.243076734,9.751134121,9.751134121,0.152676112,0.124705305,32.54021421,33.11449994,11.42503367,20,19,100,92,1.88987581,1
434,9.91253442,10.03575067,12.37646871,12.52329599,0.288681522,0.241699252,9.758769921,9.758769921,0.152653061,0.124761924,32.54008048,33.11473401,11.45216305,20,19,100,91,1.88987581,1
435,9.911050061,10.0358539,12.3662076,12.59330465,0.287079394,0.238381785,9.773713287,9.773713287,0.152635115,0.124815139,32.5399727,33.11491648,11.45216305,20,19,100,91,1.88987581,1
436,9.912297984,10.03894203,12.37680733,12.58191153,0.282524433,0.233236746,9.786411277,9.786411277,0.152616742,0.124867627,32.53979064,33.11508132,11.45216305,20,19,100,91,1.88987581,1
437,9.915190253,10.04390028,12.39470459,12.50404411,0.276162289,0.227444084,9.786760616,9.786760616,0.152599687,0.124926309,32.53959393,33.11514109,11.47542168,20,19,100,91,1.88987581,1
438,9.916999489,10.04894171,12.4017062,12.42538467,0.269666943,0.222501016,9.774428673,9.774428673,0.152587647,0.124988503,32.53941033,33.11523965,11.47542168,20,19,100,91,1.88987581,1
439,9.917174151,10.05353498,12.410061,12.38294352,0.26442821,0.219261728,9.759806002,9.759806002,0.152571404,0.125052233,32.53922363,33.1153365,11.47542168,20,19,100,91,1.88987581,1
440,9.916789218,10.05783263,12.43772415,12.37019123,0.261042622,0.217666233,9.753711009,9.753711009,0.152555213,0.125121146,32.53891818,33.11530592,11.49346438,20,19,100,90,1.88987581,1
441,9.916726629,10.06158279,12.48169308,12.37809222,0.259494881,0.217286969,9.759668008,9.759668008,0.152543425,0.125191255,32.53866,33.11523066,11.49346438,20,19,100,90,1.88987581,1
442,9.916826562,10.06388506,12.52156543,12.40345489,0.259661303,0.217908036,9.772725334,9.772725334,0.152530475,0.125260499,32.53852191,33.11519204,11.49346438,20,19,100,90,1.88987581,1
443,9.916389786,10.06363181,12.54085503,12.43455901,0.261591029,0.219651561,9.782678672,9.782678672,0.152519169,0.125325399,32.53836997,33.11507567,11.5056033,21,19,100,90,1.88987581,1
444,9.915280828,10.06028882,12.53395487,12.45849485,0.265346055,0.222773223,9.783336491,9.783336491,0.152512387,0.125392786,32.53804988,33.11501412,11.5056033,21,19,100,90,1.88987581,1
445,9.913533773,10.05438122,12.49377527,12.47223888,0.270612983,0.227349747,9.778987077,9.778987077,0.152503054,0.125461675,32.53774532,33.11489211,11.5056033,21,19,100,90,1.88987581,1
446,9.91118044,10.04755991,12.41730567,12.48795819,0.276447253,0.23289141,9.777522533,9.777522533,0.152497844,0.12552983,32.53743089,33.11477106,11.51191186,21,19,100,90,1.88987581,1
447,9.909068211,10.04239354,12.3321438,12.52090092,0.281430791,0.238107957,9.779737885,9.779737885,0.152490708,0.125598636,32.53711498,33.11462708,11.51191186,21,19,100,90,1.88987581,1
448,9.908328553,10.04062519,12.28867273,12.55731456,0.284261128,0.24133972,9.780975389,9.780975389,0.152489404,0.125661586,32.53691674,33.11445759,11.51326607,21,19,100,89,1.88987581,1
449,9.909337724,10.0406389,12.30353451,12.56345644,0.284383454,0.241622405,9.778775975,9.778775975,0.1525967,0.125718075,32.53656226,33.11429712,11.51326607,21,19,100,89,1.88987581,1
450,9.911640517,10.03953568,12.348207,12.53567784,0.282189114,0.239400735,9.772786463,9.772786463,0.152623169,0.125773439,32.53611476,33.11411423,11.51326607,21,19,100,89,1.88987581,1
451,9.91405095,10.037506,12.40106188,12.49999517,0.278735975,0.236070605,9.763067648,9.763067648,0.152650625,0.125826336,32.53582089,33.11391467,11.51130274,21,19,100,89,1.88987581,1
452,9.915301462,10.03690422,12.46256742,12.47363857,0.275347058,0.23290616,9.751918433,9.751918433,0.152675123,0.125871192,32.53564047,33.11364803,11.51130274,21,19,100,89,1.88987581,1
453,9.915158251,10.03861725,12.52328897,12.45926764,0.273144782,0.230444096,9.743084449,9.743084449,0.152710982,0.12591612,32.53529631,33.11333579,11.51130274,21,19,100,89,1.88987581,1
454,9.914295924,10.04183472,12.55124925,12.45779794,0.272508508,0.228664495,9.73954094,9.73954094,0.152800874,0.125949142,32.53498394,33.11300845,11.50827841,21,19,100,89,1.88987581,1
455,9.913370833,10.04619866,12.52605966,12.47258533,0.272757161,0.227335175,9.743891714,9.743891714,0.152857486,0.125975583,32.53464659,33.11275909,11.50827841,21,19,100,89,1.88987581,1
456,9.912622079,10.05106546,12.47235295,12.49799653,0.272566984,0.226048623,9.757294701,9.757294701,0.152900882,0.126001845,32.53422073,33.11248281,11.50682784,21,19,100,89,1.88987581,1
457,9.912233785,10.05413937,12.43925336,12.5111542,0.271012756,0.224248988,9.774975024,9.774975024,0.152953458,0.126024384,32.53388209,33.11230285,11.50682784,21,19,100,89,1.88987581,1
458,9.912459598,10.05464196,12.4545661,12.49907393,0.26830996,0.221663873,9.786406576,9.786406576,0.152999951,0.12603894,32.53355663,33.1120233,11.50682784,21,19,100,89,1.88987581,1
459,9.912918625,10.05463889,12.4995477,12.48267907,0.265527284,0.21882172,9.784264167,9.784264167,0.153056523,0.126049008,32.53322161,33.11165421,11.50964379,21,19,100,88,1.88987581,1
460,9.913047004,10.0550468,12.52677897,12.490246,0.263647689,0.216930532,9.7736282,9.7736282,0.153116776,0.12605055,32.53279552,33.11134084,11.50964379,21,19,100,88,1.88987581,1
461,9.913276515,10.05439211,12.51028148,12.52196473,0.26296941,0.217016698,9.768424901,9.768424901,0.153174541,0.126051058,32.53239311,33.11104208,11.50964379,21,19,100,88,1.88987581,1
462,9.91422526,10.05174011,12.46889085,12.55088609,0.263248893,0.21909386,9.775341209,9.775341209,0.153236809,0.126043362,32.53190534,33.11076959,11.51912149,20,19,100,88,1.88987581,1
463,9.915753975,10.04826593,12.43917474,12.54792959,0.264124739,0.222186691,9.785866569,9.785866569,0.153300225,0.126024585,32.53162479,33.1104239,11.51912149,20,19,100,88,1.88987581,1
464,9.917494724,10.04592728,12.44040869,12.50649783,0.265323654,0.225201123,9.788822967,9.788822967,0.153362811,0.126001908,32.53148144,33.11007069,11.51912149,20,19,100,88,1.88987581,1
465,9.918862547,10.04509342,12.46671817,12.45036952,0.266668506,0.227711506,9.784664384,9.784664384,0.153424527,0.125968131,32.53118134,33.10976229,11.53702461,20,19,100,88,1.88987581,1
466,9.919393892,10.04451731,12.50652359,12.42323654,0.268106442,0.229971372,9.781885796,9.781885796,0.153489033,0.125932846,32.53083658,33.10945734,11.53702461,20,19,100,88,1.88987581,1
467,9.919514632,10.04377278,12.5546929,12.45698116,0.269624885,0.232249664,9.784516782,9.784516782,0.153553263,0.125890621,32.53051765,33.10908997,11.53702461,20,19,100,88,1.88987581,1
468,9.919937163,10.04397893,12.59638426,12.53071991,0.270943397,0.234296368,9.788306128,9.788306128,0.153618453,0.125842991,32.53024707,33.10861606,11.56422998,20,19,100,88,1.88987581,1
469,9.920874983,10.04563368,12.60845587,12.58687004,0.271355406,0.235473831,9.787749625,9.787749625,0.153678456,0.125791049,32.5299722,33.10819382,11.56422998,20,19,100,88,1.88987581,1
470,9.921469042,10.04702614,12.59124743,12.59843541,0.270162055,0.235361943,9.783019609,9.783019609,0.153741644,0.125732025,32.52964307,33.10785321,11.56422998,20,19,100,88,1.88987581,1
471,9.920468346,10.04639784,12.57776004,12.58264378,0.267396553,0.234206237,9.778455934,9.778455934,0.153804484,0.12567615,32.52940494,33.10752161,11.60059509,20,19,100,88,1.88987581,1
472,9.918404472,10.04524309,12.5964244,12.56189358,0.264017649,0.232788916,9.776981469,9.776981469,0.153863386,0.125615726,32.52912421,33.10708509,11.60059509,20,19,100,88,1.88987581,1
473,9.916794693,10.04653875,12.63460525,12.55506639,0.261298266,0.231824532,9.778159471,9.778159471,0.153921256,0.125553536,32.52890195,33.10670166,11.60059509,20,19,100,88,1.88987581,1
474,9.915623308,10.04971757,12.65607981,12.57795816,0.259979707,0.231345195,9.780905534,9.780905534,0.153972728,0.125484586,32.52877577,33.10635539,11.64496867,20,19,100,88,1.88987581,1
475,9.914222703,10.0509426,12.63531016,12.60868597,0.259852075,0.230631206,9.786347582,9.786347582,0.154020329,0.125414023,32.52868407,33.10601078,11.64496867,20,19,100,88,1.88987581,1
476,9.913136436,10.0483075,12.56709662,12.59115428,0.259967933,0.228928845,9.795519675,9.795519675,0.154068814,0.125339296,32.52872943,33.10564995,11.64496867,20,19,100,88,1.88987581,1
477,9.913139867,10.04383032,12.47618569,12.5112513,0.259325932,0.22640795,9.804405287,9.804405287,0.154111645,0.125272632,32.52868256,33.10532642,11.64496867,20,19,100,88,1.88987581,1
478,9.91378659,10.04046478,12.41299207,12.43012081,0.257607185,0.224293727,9.805775206,9.805775206,0.154148926,0.125204291,32.52862531,33.10498068,11.69533617,20,19,100,88,1.88987581,1
479,9.914218074,10.03905496,12.40807669,12.41237717,0.255469283,0.223880835,9.797519221,9.797519221,0.154179355,0.125131923,32.52845085,33.10466947,11.69533617,20,19,100,88,1.88987581,1
480,9.914149508,10.03850583,12.44244016,12.45414798,0.254167004,0.225348022,9.785499291,9.785499291,0.154206471,0.125067989,32.52821443,33.10440609,11.69533617,20,19,100,88,1.88987581,1
481,9.913840495,10.03780099,12.48020145,12.50471369,0.254767447,0.227659943,9.77643959,9.77643959,0.154228211,0.124998476,32.52795455,33.10405128,11.7490656,20,19,100,88,1.88987581,1
482,9.913910634,10.03724761,12.50992414,12.53220822,0.257446549,0.229620578,9.771434023,9.771434023,0.154249471,0.12492911,32.52777707,33.10366162,11.7490656,20,19,100,88,1.88987581,1
483,9.914608673,10.03780299,12.53976077,12.54486892,0.261275188,0.23093616,9.768788705,9.768788705,0.154263783,0.124857823,32.52777785,33.10331865,11.7490656,20,19,100,88,1.88987581,1
484,9.915614229,10.03914445,12.57161098,12.56356957,0.26467293,0.232224496,9.768293682,9.768293682,0.154277451,0.124788563,32.5276787,33.10290804,11.80320055,20,19,100,87,1.88987581,1
485,9.916600883,10.03967054,12.59886601,12.59250356,0.266304175,0.234077604,9.769967482,9.769967482,0.154280103,0.124721678,32.5275686,33.10256234,11.80320055,20,19,100,87,1.88987581,1
486,9.917020946,10.03891936,12.6179028,12.61983702,0.265798628,0.23620246,9.773041551,9.773041551,0.154277789,0.124532565,32.52738919,33.10225753,11.85474193,20,19,100,87,1.88987581,1
487,9.916444205,10.03812648,12.62330901,12.63513324,0.263785228,0.237464414,9.777015444,9.777015444,0.15427155,0.124441988,32.52716473,33.10193432,11.85474193,20,19,100,87,1.88987581,1
488,9.91553198,10.03811265,12.60635661,12.62554232,0.261362034,0.236755963,9.782256038,9.782256038,0.154254348,0.124383917,32.52691061,33.10152658,11.85474193,20,19,100,87,1.88987581,1
489,9.915390995,10.03825315,12.57136168,12.57293214,0.259567876,0.233953011,9.788876498,9.788876498,0.154240183,0.124330252,32.52661351,33.10111595,11.900869,20,20,100,87,1.88987581,1
490,9.916497932,10.03791399,12.53450627,12.4864672,0.259140932,0.230220479,9.79317741,9.79317741,0.154217427,0.124287193,32.52640341,33.10065471,11.900869,20,20,100,87,1.88987581,1
491,9.918576911,10.03780044,12.5061793,12.41455049,0.260341711,0.227401294,9.789850142,9.789850142,0.154189658,0.124243221,32.52613807,33.10034541,11.900869,20,20,100,87,1.88987581,1
492,9.920445057,10.03823506,12.48422017,12.39288014,0.262726362,0.22693516,9.780898195,9.780898195,0.154164415,0.124206536,32.52582512,33.10003827,11.9390724,20,20,100,87,1.88987581,1
493,9.920561726,10.03763553,12.46331353,12.40833159,0.265222822,0.228941786,9.774601526,9.774601526,0.154129154,0.124168682,32.52551209,33.09968311,11.9390724,20,20,100,87,1.88987581,1
494,9.918652886,10.03572063,12.45068661,12.43631995,0.266724708,0.232154089,9.774816074,9.774816074,0.154095833,0.12412925,32.5253502,33.09930161,11.9390724,20,20,100,87,1.88987581,1
495,9.916211675,10.03509969,12.45955166,12.47441389,0.266711971,0.23483042,9.778011015,9.778011015,0.154062107,0.124095867,32.52516136,33.0988788,11.96720121,20,20,100,87,1.88987581,1
496,9.915031413,10.03687771,12.48983834,12.51779208,0.265357768,0.236008702,9.778637309,9.778637309,0.154024128,0.124066345,32.52480826,33.09852145,11.96720121,20,20,100,87,1.88987581,1
497,9.915292764,10.03889157,12.52523995,12.54437099,0.263230352,0.23599631,9.774191793,9.774191793,0.1539879,0.124039253,32.52448377,33.0981826,11.96720121,20,20,100,87,1.88987581,1
498,9.915701851,10.03976529,12.53989453,12.55012181,0.260988041,0.235684107,9.76915919,9.76915919,0.153952487,0.124010652,32.52406218,33.09783292,11.98345458,20,20,100,86,1.88987581,1
499,9.915428975,10.04085508,12.5145781,12.56103746,0.259165347,0.235525277,9.773132767,9.773132767,0.153911217,0.123986017,32.52374063,33.09740458,11.98345458,20,20,100,86,1.88987581,1
500,9.914740546,10.0436612,12.46185473,12.59078185,0.257991941,0.23526069,9.788602803,9.788602803,0.153876884,0.123958972,32.5234063,33.09708628,11.98636733,21,20,100,86,1.88987581,1
501,9.914401454,10.04753379,12.41990452,12.61631192,0.257348248,0.234459291,9.804262361,9.804262361,0.153838515,0.12393567,32.52305622,33.09683601,11.98636733,21,20,100,86,1.88987581,1
502,9.914938376,10.05036112,12.40812585,12.60571835,0.256956071,0.233049748,9.806161056,9.806161056,0.153797511,0.123917542,32.52249944,33.09646798,11.98636733,21,20,100,86,1.88987581,1
503,9.916066383,10.05101917,12.41146279,12.55760512,0.256647833,0.231272802,9.79134758,9.79134758,0.153777238,0.123895836,32.52192359,33.09602718,11.97484006,21,20,100,86,1.88987581,1
504,9.917389707,10.05030915,12.41356975,12.50490582,0.256479393,0.22931126,9.769676066,9.769676066,0.153743928,0.12388003,32.52149236,33.0956348,11.97484006,21,20,100,86,1.88987581,1
505,9.918883163,10.04955883,12.41665111,12.48287442,0.256669979,0.227162454,9.755877168,9.755877168,0.153711733,0.1238647,32.52097989,33.09527064,11.97484006,21,20,100,86,1.88987581,1
506,9.919959534,10.04942861,12.4217131,12.50173031,0.257463218,0.224802043,9.757904274,9.757904274,0.153683702,0.123849405,32.52041874,33.09492939,11.94824726,21,20,100,86,1.88987581,1
507,9.919493009,10.05006649,12.41287666,12.54520048,0.258931554,0.222372361,9.771587898,9.771587898,0.153650974,0.12383776,32.51996637,33.09449034,11.94824726,21,20,100,86,1.88987581,1
508,9.917242565,10.05170607,12.38797906,12.58549296,0.260795223,0.220178623,9.78668199,9.78668199,0.153620857,0.123823985,32.51937271,33.09413015,11.94824726,21,20,100,86,1.88987581,1
509,9.914595273,10.05452436,12.38695944,12.59606302,0.262516709,0.21854422,9.794442583,9.794442583,0.153498995,0.123812088,32.51889117,33.09380196,11.9066234,21,20,100,86,1.88987581,1
510,9.913954282,10.05819783,12.44295659,12.55801411,0.263734687,0.217694785,9.789987166,9.789987166,0.153466228,0.12380377,32.51840111,33.09356785,11.9066234,21,20,100,86,1.88987581,1
511,9.916601639,10.06225445,12.52430004,12.47981998,0.264568265,0.217732781,9.77349203,9.77349203,0.15344563,0.123797342,32.51778749,33.09330695,11.9066234,21,20,100,86,1.88987581,1
512,9.920733455,10.06574582,12.5685564,12.40870495,0.265328387,0.218587611,9.750635757,9.750635757,0.153435252,0.123785687,32.51714048,33.0930764,11.85088833,21,20,100,86,1.88987581,1
513,9.923180714,10.06699268,12.55972415,12.39088464,0.265956072,0.219921831,9.729876167,9.729876167,0.153419151,0.123779374,32.51656738,33.09289683,11.85088833,21,20,100,86,1.88987581,1
514,9.922862997,10.06572525,12.54646537,12.42835237,0.265958253,0.221213152,9.717442036,9.717442036,0.153374995,0.123772749,32.51597784,33.09271035,11.85088833,21,20,100,86,1.88987581,1
515,9.921058357,10.06377769,12.57652421,12.48969127,0.264956133,0.222092004,9.714302692,9.714302692,0.153344756,0.123769739,32.5153573,33.09243017,11.78304147,20,19,100,86,1.88987581,1
516,9.91908124,10.06190381,12.62240789,12.54305891,0.263132402,0.222609079,9.71854723,9.71854723,0.153346041,0.123761981,32.5148128,33.09221483,11.78304147,20,19,100,86,1.88987581,1
517,9.917016544,10.05811081,12.6088138,12.57674135,0.261039743,0.223081976,9.727572134,9.727572134,0.153345587,0.123753195,32.51425366,33.092027,11.70624176,20,19,100,86,1.88987581,1
518,9.914540703,10.05064418,12.51164198,12.60032965,0.259094856,0.223623971,9.736945301,9.736945301,0.153347017,0.123744667,32.51364316,33.09186173,11.70624176,20,19,100,86,1.88987581,1
519,9.911639208,10.04125366,12.38354654,12.6194619,0.257302657,0.223887478,9.742015616,9.742015616,0.153348696,0.123740949,32.51314106,33.09174637,11.70624176,20,19,100,86,1.88987581,1
520,9.908641344,10.03390445,12.29592985,12.6230616,0.255426632,0.223365716,9.742000151,9.742000151,0.153352789,0.123730755,32.51277509,33.09164556,11.62470425,20,19,100,86,1.88987581,1
521,9.906806046,10.03089695,12.29053281,12.61010579,0.253356372,0.221946286,9.740657675,9.740657675,0.153363181,0.123721326,32.51236149,33.09156333,11.62470425,20,19,100,86,1.88987581,1
522,9.907461095,10.03192578,12.35969481,12.59516674,0.251331806,0.220094273,9.742829997,9.742829997,0.153374445,0.123714574,32.5121203,33.09154683,11.62470425,20,19,100,86,1.88987581,1
523,9.910061626,10.03530339,12.45613763,12.58056219,0.249830617,0.218526373,9.750475431,9.750475431,0.153388714,0.123709576,32.51190166,33.0915062,11.54338327,20,19,100,85,1.88987581,1
524,9.912907919,10.03812038,12.5383261,12.56193694,0.249202809,0.217786709,9.761760136,9.761760136,0.153405754,0.12370796,32.51157214,33.09157713,11.54338327,20,19,100,85,1.88987581,1
525,9.914790493,10.03753172,12.59875496,12.5502733,0.249377817,0.218059258,9.773900399,9.773900399,0.153424542,0.123707937,32.51138944,33.09161026,11.54338327,20,19,100,85,1.88987581,1
526,9.915145715,10.03353618,12.64442489,12.55797256,0.249942829,0.219236344,9.786413572,9.786413572,0.153447733,0.123699622,32.51117933,33.09162924,11.46746686,20,19,100,85,1.88987581,1
527,9.914205104,10.02926309,12.66947784,12.57724006,0.250562432,0.221175661,9.800514196,9.800514196,0.153468268,0.123698643,32.51094853,33.09164717,11.46746686,20,19,100,85,1.88987581,1
528,9.912922983,10.02787574,12.65453937,12.5823159,0.251386441,0.223995381,9.815400163,9.815400163,0.15348948,0.12369786,32.51081703,33.09174315,11.46746686,20,19,100,85,1.88987581,1
529,9.912332205,10.02929554,12.59338857,12.54783078,0.253084885,0.228076836,9.826455918,9.826455918,0.153509673,0.123692836,32.51079968,33.09177937,11.40176208,20,19,100,85,1.88987581,1
530,9.913432353,10.03115291,12.51844262,12.47546124,0.256416409,0.233581678,9.828637732,9.828637732,0.153539008,0.123692049,32.51088328,33.091755,11.40176208,20,19,100,85,1.88987581,1
531,9.916272619,10.03289635,12.47374629,12.39939153,0.261603414,0.239885365,9.82212537,9.82212537,0.15356355,0.123688108,32.51079018,33.09176456,11.40176208,20,19,100,85,1.88987581,1
532,9.91896899,10.03484516,12.47238006,12.35983944,0.267933204,0.245495834,9.812815026,9.812815026,0.153583298,0.123684203,32.51068861,33.09179213,11.35008787,20,18,100,85,1.88987581,1
533,9.919473255,10.03448268,12.48991665,12.37073784,0.274010326,0.248730214,9.804490148,9.804490148,0.153597903,0.123684036,32.51064355,33.09178737,11.35008787,20,18,100,85,1.88987581,1
534,9.917758414,10.02910099,12.49111733,12.41455156,0.278481213,0.248517278,9.793832373,9.793832373,0.15361533,0.123681757,32.51047896,33.09177839,11.35008787,20,18,100,85,1.88987581,1
535,9.915375896,10.02100727,12.45896265,12.46362496,0.280679982,0.244856615,9.778198904,9.778198904,0.153627637,0.123680289,32.51040384,33.09187762,11.31480021,20,18,100,85,1.88987581,1
536,9.913896194,10.01544716,12.4062759,12.50144148,0.280732431,0.238956529,9.763697336,9.763697336,0.153642537,0.123669386,32.51034684,33.09190359,11.31480021,20,18,100,85,1.88987581,1
537,9.913556394,10.01444438,12.35678696,12.5253373,0.279180775,0.233037443,9.759772294,9.759772294,0.153655436,0.123663156,32.51037465,33.09183122,11.31480021,20,18,100,85,1.88987581,1
538,9.913566631,10.01611514,12.33177059,12.53881674,0.276596098,0.229480702,9.767973291,9.767973291,0.153665677,0.123656464,32.51049773,33.09182956,11.29654835,20,18,100,85,1.88987581,1
539,9.914263194,10.0187138,12.3565654,12.53721177,0.273529477,0.229453441,9.780650248,9.780650248,0.153671981,0.123652058,32.5106834,33.0918207,11.29654835,20,18,100,85,1.88987581,1
540,9.916717265,10.02242286,12.43705019,12.50634092,0.27063653,0.231987301,9.79019322,9.79019322,0.153676198,0.123641453,32.5109868,33.09168106,11.29654835,20,18,100,85,1.88987581,1
541,9.92003179,10.02763745,12.52616316,12.45045862,0.268560609,0.234489308,9.794015109,9.794015109,0.153676819,0.123631831,32.51122325,33.09160646,11.29430885,20,18,100,85,1.88987581,1
542,9.922052713,10.03353583,12.5635198,12.40697187,0.267554681,0.234522725,9.792314673,9.792314673,0.153679369,0.123618438,32.51137392,33.09165449,11.29430885,20,18,100,85,1.88987581,1
543,9.921827668,10.0389878,12.55435326,12.41669288,0.267246586,0.231460248,9.787506169,9.787506169,0.153683277,0.123614214,32.51139619,33.09161269,11.29430885,20,18,100,85,1.88987581,1
544,9.919518603,10.04348433,12.55466641,12.47916082,0.266788139,0.226634486,9.782340497,9.782340497,0.153678704,0.123609303,32.51142205,33.09137949,11.3056801,20,18,100,85,1.88987581,1
545,9.916183539,10.04644982,12.58068693,12.54340043,0.265276354,0.222136109,9.777295991,9.777295991,0.153673832,0.123599172,32.51157788,33.09120586,11.3056801,20,18,100,85,1.88987581,1
546,9.914048751,10.04717493,12.59370742,12.55439856,0.262266165,0.219457127,9.774708276,9.774708276,0.15366225,0.123595637,32.51167556,33.09103433,11.3056801,20,18,100,85,1.88987581,1
547,9.91453815,10.04516431,12.55941138,12.50526002,0.258165978,0.218949875,9.779792937,9.779792937,0.153648869,0.123586384,32.51189119,33.09076085,11.32736266,20,18,100,85,1.88987581,1
548,9.916278646,10.04021786,12.48371897,12.4409382,0.254191159,0.220018149,9.792549012,9.792549012,0.153630095,0.123579614,32.51207329,33.09052949,11.32736266,20,18,100,85,1.88987581,1
549,9.916727157,10.0340246,12.40779093,12.41668024,0.251763701,0.221623995,9.805135363,9.805135363,0.153606634,0.123568446,32.51217896,33.09029821,11.32736266,20,18,100,85,1.88987581,1
550,9.9156462,10.03021952,12.37242202,12.44164601,0.251748802,0.222867977,9.808920585,9.808920585,0.15358139,0.123564254,32.51229573,33.09003229,11.35571528,20,18,100,85,1.88987581,1
551,9.91535727,10.0307441,12.37881231,12.47022575,0.254091347,0.223391734,9.80148483,9.80148483,0.1535483,0.123554697,32.51236785,33.08969307,11.35571528,20,18,100,85,1.88987581,1
552,9.916998473,10.03379281,12.39621083,12.46221485,0.258015164,0.223302789,9.789392648,9.789392648,0.153507545,0.123546707,32.51243275,33.08934378,11.35571528,20,18,100,85,1.88987581,1
553,9.919057252,10.03630913,12.41134727,12.43029438,0.262488151,0.222718959,9.783757474,9.783757474,0.153466391,0.123536131,32.51241229,33.0890037,11.38727102,20,18,100,85,1.88987581,1
554,9.920088668,10.03749283,12.44336011,12.41608264,0.266619614,0.221516639,9.789446572,9.789446572,0.153415718,0.123533153,32.5123617,33.08864283,11.38727102,20,18,100,85,1.88987581,1
555,9.919947604,10.03913442,12.50180951,12.43876751,0.269871067,0.219624783,9.799443994,9.799443994,0.153361921,0.12352679,32.51234072,33.08826844,11.41912036,20,18,100,85,1.88987581,1
556,9.918987028,10.04260384,12.56710592,12.4876685,0.27205669,0.217417782,9.802466169,9.802466169,0.153301113,0.123522471,32.51230188,33.08787747,11.41912036,20,18,100,85,1.88987581,1
557,9.917751742,10.04722503,12.61916393,12.55396373,0.273144836,0.215574133,9.796311129,9.796311129,0.153232778,0.123514808,32.51224892,33.08747755,11.41912036,20,18,100,85,1.88987581,1
558,9.916407508,10.05187036,12.6456788,12.6295244,0.272988956,0.214561247,9.789390679,9.789390679,0.153164592,0.123509499,32.51218543,33.08704205,11.4491101,20,18,100,85,1.88987581,1
559,9.91499025,10.05571433,12.62952854,12.68192963,0.271324162,0.214320601,9.788833521,9.788833521,0.153089574,0.123506844,32.5120572,33.08667745,11.4491101,20,18,100,85,1.88987581,1
560,9.914019315,10.05792595,12.57317496,12.68621656,0.268090491,0.214398511,9.79378898,9.79378898,0.153010523,0.123505077,32.51180853,33.08622059,11.4491101,20,18,100,85,1.88987581,1
561,9.91359563,10.05777278,12.5166946,12.6567441,0.263812678,0.214235109,9.799239584,9.799239584,0.152932433,0.123502722,32.51155312,33.08572285,11.47585444,20,18,100,85,1.88987581,1
562,9.913502579,10.05493236,12.49603058,12.61340833,0.259610947,0.213426036,9.800717416,9.800717416,0.152851167,0.123499994,32.51136545,33.08536585,11.47585444,20,18,100,85,1.88987581,1
563,9.91371715,10.05099011,12.50818866,12.56949735,0.256681573,0.211930827,9.796789507,9.796789507,0.152765729,0.123501642,32.51116772,33.08505545,11.47585444,20,18,100,85,1.88987581,1
564,9.913808859,10.04896681,12.53312113,12.54796332,0.25559439,0.210108286,9.789179047,9.789179047,0.152667061,0.123501277,32.51093997,33.08464274,11.49859525,20,18,100,85,1.88987581,1
565,9.913612939,10.04963045,12.55947524,12.56277924,0.256074861,0.208490036,9.780542674,9.780542674,0.152580401,0.123501923,32.51066117,33.08419175,11.49859525,20,18,100,85,1.88987581,1
566,9.913414967,10.05070533,12.57693364,12.60611949,0.257511558,0.207475947,9.772727534,9.772727534,0.152484689,0.123504717,32.5102964,33.08374727,11.49859525,20,18,100,85,1.88987581,1
567,9.913067166,10.05056369,12.57420837,12.66640981,0.25953888,0.207241099,9.766170304,9.766170304,0.152392941,0.123505849,32.50986851,33.08331079,11.51697418,20,18,100,85,1.88987581,1
568,9.912641692,10.05097784,12.55882037,12.73467737,0.261932499,0.207867908,9.760715038,9.760715038,0.152294974,0.123509313,32.50951003,33.0828836,11.51697418,20,18,100,85,1.88987581,1
569,9.912402596,10.05473378,12.55151468,12.79610044,0.264067817,0.209403747,9.757508672,9.757508672,0.152198555,0.123509349,32.50907426,33.08246675,11.53078612,20,18,100,86,1.88987581,1
570,9.912055779,10.06129036,12.56586741,12.83256338,0.264922765,0.211687778,9.758631804,9.758631804,0.152099451,0.123512769,32.50872308,33.08203919,11.53078612,20,18,100,86,1.88987581,1
571,9.91178769,10.06703694,12.60702709,12.83214038,0.263844619,0.214185414,9.765271282,9.765271282,0.151997061,0.123518533,32.50835489,33.08158594,11.53078612,20,18,100,86,1.88987581,1
572,9.912276011,10.0692863,12.6612471,12.79546985,0.261215316,0.216187101,9.777080491,9.777080491,0.151898304,0.123524515,32.50794968,33.08121346,11.53078612,20,18,100,86,1.88987581,1
573,9.913013036,10.06806004,12.69669398,12.73271418,0.258145884,0.217213604,9.790949001,9.790949001,0.151797507,0.123528071,32.50752902,33.08087614,11.53977484,20,18,100,86,1.88987581,1
574,9.91287592,10.06418098,12.69701458,12.65084471,0.25559247,0.217184367,9.799565818,9.799565818,0.151700757,0.123533484,32.50709817,33.08052101,11.53977484,20,18,100,86,1.88987581,1
575,9.912219445,10.05807731,12.67627278,12.56343532,0.253883519,0.216208522,9.797483991,9.797483991,0.151602893,0.123537803,32.50672566,33.08020341,11.53977484,20,18,100,86,1.88987581,1
576,9.912175475,10.05167843,12.65830162,12.5070276,0.252961109,0.214368771,9.790027678,9.790027678,0.151503681,0.123548307,32.50636061,33.07982883,11.53977484,20,18,100,86,1.88987581,1
577,9.912766299,10.04872876,12.64984746,12.50664629,0.252804592,0.211841063,9.788076437,9.788076437,0.151409149,0.123561583,32.505927,33.07937279,11.54351171,20,18,100,86,1.88987581,1
578,9.913398075,10.05093824,12.63583091,12.54037434,0.253545971,0.209137577,9.79538984,9.79538984,0.151316459,0.123569409,32.5054944,33.07900677,11.54351171,20,18,100,86,1.88987581,1
579,9.913490988,10.05562469,12.60550783,12.57283389,0.255294608,0.20701764,9.806249427,9.806249427,0.151223858,0.123581175,32.50500666,33.0786523,11.54351171,20,18,100,86,1.88987581,1
580,9.912715533,10.05864106,12.57814009,12.59400981,0.257911467,0.206101836,9.81239357,9.81239357,0.151133585,0.123585469,32.50443098,33.07837158,11.54137444,20,18,100,86,1.88987581,1
581,9.911776536,10.05848327,12.58344816,12.60306737,0.260893396,0.206680318,9.810807422,9.810807422,0.151042792,0.123591724,32.50392768,33.07807231,11.54137444,20,18,100,86,1.88987581,1
582,9.911399718,10.05654153,12.61764179,12.59036172,0.263449009,0.208857566,9.805826152,9.805826152,0.150949938,0.123597639,32.50350151,33.07773811,11.54137444,20,18,100,86,1.88987581,1
583,9.911325248,10.05421708,12.65165326,12.56237784,0.26480809,0.212567211,9.803298431,9.803298431,0.150858546,0.123602837,32.50299086,33.07740673,11.53262043,20,18,100,87,1.88987581,1
584,9.911381166,10.05164321,12.67636073,12.55637313,0.26468067,0.217232074,9.804838192,9.804838192,0.150766889,0.123601255,32.50259424,33.07696208,11.53262043,20,18,100,87,1.88987581,1
585,9.911469741,10.04909405,12.69552893,12.59347177,0.263534076,0.221582748,9.808645425,9.808645425,0.150682399,0.123607184,32.50221239,33.07656014,11.51653198,20,18,100,87,1.88987581,1
586,9.911193329,10.04754831,12.69849558,12.64454252,0.262381045,0.224324781,9.811472054,9.811472054,0.150601027,0.12361425,32.50178678,33.0761831,11.51653198,20,18,100,87,1.88987581,1
587,9.910807636,10.04764311,12.6862687,12.68218859,0.262140791,0.22510993,9.809145513,9.809145513,0.150525518,0.123616337,32.50148856,33.07586143,11.51653198,20,18,100,87,1.88987581,1
588,9.910716875,10.04891413,12.6843569,12.7166962,0.263118089,0.224691838,9.79975775,9.79975775,0.150450268,0.123617945,32.50110745,33.07557589,11.49260106,20,18,100,87,1.88987581,1
589,9.910538698,10.04950921,12.69763565,12.73653645,0.264975118,0.22405625,9.787888867,9.787888867,0.150380503,0.123621795,32.50072811,33.07530527,11.49260106,20,18,100,87,1.88987581,1
590,9.910036364,10.04708787,12.69394654,12.69007274,0.26703482,0.223547423,9.782664597,9.782664597,0.150310825,0.123622152,32.50030887,33.07501959,11.49260106,20,18,100,87,1.88987581,1
591,9.909663871,10.04155891,12.65007211,12.57123309,0.268579281,0.222884549,9.789026379,9.789026379,0.150241313,0.12362931,32.50003209,33.07467232,11.46071791,20,18,100,87,1.88987581,1
592,9.910140996,10.03603865,12.5872202,12.44742795,0.269072401,0.221857164,9.802378138,9.802378138,0.150186203,0.123627696,32.49988745,33.07437582,11.46071791,20,18,100,87,1.88987581,1
593,9.91171969,10.03317056,12.5507165,12.37988742,0.26838857,0.220845007,9.813788799,9.813788799,0.150132176,0.123629693,32.49972683,33.07401061,11.46071791,20,18,100,87,1.88987581,1
594,9.913290186,10.03150415,12.55971809,12.370359,0.266962301,0.220658548,9.819347711,9.819347711,0.150081795,0.123634259,32.49954665,33.07364444,11.42133041,20,18,100,87,1.88987581,1
595,9.913343431,10.02767433,12.58229168,12.39225985,0.265638466,0.221936095,9.821077914,9.821077914,0.150037941,0.123638898,32.49936846,33.07320344,11.42133041,20,18,100,87,1.88987581,1
596,9.911711666,10.02170298,12.5758878,12.44074485,0.265190398,0.22462336,9.819395701,9.819395701,0.149989418,0.123642052,32.49919221,33.07277442,11.42133041,20,18,100,87,1.88987581,1
597,9.909466864,10.01763391,12.54514521,12.52217836,0.265822965,0.227844578,9.811554328,9.811554328,0.149943386,0.123649213,32.49900776,33.0724008,11.37554648,20,18,100,87,1.88987581,1
598,9.908089517,10.01849551,12.52798411,12.6105874,0.26709228,0.230201632,9.797710403,9.797710403,0.149902526,0.123652572,32.49874007,33.07196369,11.37554648,20,18,100,87,1.88987581,1
599,9.908401828,10.02320007,12.53415622,12.66166431,0.268332692,0.230514603,9.781736228,9.781736228,0.149860002,0.123659553,32.4984666,33.07150754,11.37554648,20,18,100,87,1.88987581,1
600,9.909472277,10.02855796,12.53634711,12.66131698,0.269182169,0.228523983,9.766975015,9.766975015,0.149819444,0.1236645,32.49820722,33.07098803,11.32515951,20,18,100,87,1.88987581,1
601,9.910036036,10.03214251,12.51898375,12.63110246,0.269646985,0.224939144,9.755569828,9.755569828,0.14978394,0.123671227,32.49809542,33.07044394,11.32515951,20,18,100,87,1.88987581,1
602,9.910369801,10.03342052,12.50177198,12.59539896,0.269722026,0.220847927,9.750677147,9.750677147,0.149742302,0.123673999,32.49811872,33.06988356,11.32515951,20,18,100,87,1.88987581,1
603,9.910947001,10.03329436,12.50426479,12.55746178,0.269216203,0.217244759,9.755621787,9.755621787,0.149704325,0.123681396,32.49804116,33.06925602,11.27258531,20,18,100,87,1.88987581,1
604,9.911490996,10.03273262,12.51487796,12.51501404,0.268131548,0.215105801,9.769545232,9.769545232,0.149666199,0.123682697,32.4979876,33.06879064,11.27258531,20,18,100,87,1.88987581,1
605,9.91177693,10.03198823,12.51982309,12.49603298,0.266997226,0.215466648,9.78610037,9.78610037,0.149630766,0.123688814,32.49793669,33.06822173,11.27258531,20,18,100,87,1.88987581,1
606,9.911364798,10.03110275,12.53500887,12.54813232,0.266444152,0.218862651,9.797729261,9.797729261,0.14959477,0.123689532,32.49786575,33.06762874,11.2207093,20,18,100,87,1.88987581,1
607,9.910046301,10.03074731,12.58505533,12.67529038,0.266371042,0.224541341,9.800356214,9.800356214,0.149558234,0.123692522,32.49779364,33.06706643,11.2207093,20,18,100,87,1.88987581,1
608,9.908605535,10.0315565,12.67032412,12.80994792,0.26577418,0.230501682,9.794545057,9.794545057,0.149525405,0.123694644,32.49774584,33.06650046,11.2207093,20,18,100,87,1.88987581,1
609,9.907650332,10.03233288,12.75807493,12.87139893,0.263592469,0.23457356,9.783616568,9.783616568,0.149492757,0.123700178,32.49771195,33.06584459,11.17265298,20,18,100,87,1.88987581,1
610,9.907255328,10.03129533,12.8058647,12.8381907,0.259682195,0.235582422,9.771277603,9.771277603,0.149462043,0.123704573,32.49766716,33.06524385,11.17265298,20,18,100,87,1.88987581,1
611,9.907685541,10.02912464,12.80149743,12.74691968,0.254965857,0.233634853,9.760087262,9.760087262,0.149433676,0.123708055,32.49751246,33.06465884,11.17265298,20,18,100,87,1.88987581,1
612,9.909065371,10.02785011,12.76565723,12.64233746,0.250731771,0.229683683,9.751093409,9.751093409,0.149404341,0.123716047,32.49747169,33.06401057,11.13148038,20,18,100,87,1.88987581,1
613,9.911235827,10.02801057,12.71897507,12.5523649,0.247907698,0.224890049,9.745480345,9.745480345,0.149377292,0.123719564,32.49746183,33.06339112,11.13148038,20,18,100,87,1.88987581,1
614,9.913662747,10.02880983,12.66896059,12.49150353,0.246842455,0.220226471,9.746178355,9.746178355,0.149349033,0.123720246,32.49737935,33.06281664,11.13148038,20,18,100,87,1.88987581,1
615,9.915183395,10.02935167,12.61943625,12.46226691,0.247479639,0.216434023,9.756546052,9.756546052,0.149317733,0.123719578,32.49723782,33.06215773,11.0998746,20,18,100,87,1.88987581,1
616,9.915400386,10.02954512,12.57324301,12.46026702,0.249541394,0.214176056,9.777648256,9.777648256,0.149287127,0.12372404,32.49718536,33.0615375,11.0998746,20,18,100,87,1.88987581,1
617,9.915072487,10.03048352,12.53129494,12.48302069,0.252520063,0.213993096,9.806189204,9.806189204,0.149254676,0.123723799,32.49710705,33.06087708,11.0998746,20,18,100,87,1.88987581,1
618,9.914316029,10.03251817,12.4975356,12.5226024,0.255606815,0.215847243,9.832388273,9.832388273,0.149220031,0.123727172,32.49703785,33.06027831,11.07982189,20,18,100,86,1.88987581,1
619,9.912954169,10.03346746,12.48494989,12.55960923,0.257870673,0.218670377,9.842452719,9.842452719,0.149190963,0.123724086,32.49694404,33.05965598,11.07982189,20,18,100,86,1.88987581,1
620,9.911592205,10.03109414,12.50394561,12.57819003,0.25875767,0.220643651,9.831140202,9.831140202,0.149156916,0.123724499,32.49680123,33.05894451,11.07982189,20,18,100,86,1.88987581,1
621,9.910443143,10.02657214,12.53388462,12.57600952,0.258482763,0.220324284,9.809233545,9.809233545,0.149123845,0.123723863,32.4966575,33.05827174,11.07234351,20,18,100,86,1.88987581,1
622,9.909344688,10.02353706,12.54432916,12.56196319,0.257865119,0.21773116,9.791431263,9.791431263,0.149086471,0.123720309,32.49657097,33.05757687,11.07234351,20,18,100,86,1.88987581,1
623,9.908706999,10.02427232,12.55138681,12.55380457,0.257771456,0.21432051,9.781634972,9.781634972,0.149047089,0.123715905,32.49644529,33.05693747,11.07234351,20,18,100,86,1.88987581,1
624,9.908675818,10.02805856,12.58722304,12.56199493,0.258697927,0.211903114,9.774315243,9.774315243,0.149007204,0.12371775,32.49631505,33.05628713,11.07731458,20,17,100,86,1.88987581,1
625,9.909048047,10.03243551,12.63122218,12.57502303,0.2606364,0.211497054,9.765702405,9.765702405,0.148969219,0.123720029,32.49619099,33.05565547,11.07731458,20,17,100,86,1.88987581,1
626,9.909821683,10.03483742,12.64436946,12.58198383,0.263123654,0.213048988,9.75804806,9.75804806,0.148931158,0.123717259,32.49609167,33.05501653,11.07731458,20,17,100,86,1.88987581,1
627,9.910663505,10.0338198,12.63538849,12.59724513,0.265488584,0.215913768,9.753141396,9.753141396,0.148893532,0.123713752,32.49592594,33.05441662,11.09340403,20,17,100,86,1.88987581,1
628,9.91125548,10.02968519,12.63544911,12.64135689,0.267222335,0.219399359,9.748846301,9.748846301,0.148851546,0.123710494,32.49571276,33.05381898,11.09340403,20,17,100,86,1.88987581,1
629,9.911486332,10.02428044,12.6497415,12.71356697,0.268142576,0.222939239,9.743899391,9.743899391,0.148813243,0.123706433,32.49553739,33.05310507,11.09340403,20,17,100,86,1.88987581,1
630,9.910979192,10.02035916,12.66906191,12.78661997,0.268289659,0.226017894,9.740657742,9.740657742,0.148773337,0.123702743,32.49535671,33.05242032,11.1181606,20,17,100,86,1.88987581,1
631,9.910210941,10.01994293,12.69207974,12.81717064,0.267877582,0.228154173,9.742623478,9.742623478,0.148733625,0.123697179,32.49517072,33.05180379,11.1181606,20,17,100,86,1.88987581,1
632,9.910571933,10.022504,12.7174959,12.78304119,0.267349977,0.228986069,9.750140984,9.750140984,0.148685944,0.123690935,32.49494471,33.05114091,11.1181606,20,17,100,86,1.88987581,1
633,9.911999525,10.0254735,12.73952088,12.71585446,0.267214782,0.228339931,9.757915093,9.757915093,0.148641742,0.123683993,32.49467824,33.05045351,11.14825583,19,17,100,86,1.88987581,1
634,9.912983809,10.02666974,12.75355743,12.66599266,0.267684145,0.226310639,9.759437952,9.759437952,0.148592317,0.123674792,32.49437159,33.04972668,11.14825583,19,17,100,86,1.88987581,1
635,9.913080347,10.02620788,12.74977278,12.63848279,0.268601934,0.22338277,9.753760066,9.753760066,0.148549703,0.123656384,32.49403389,33.04899863,11.14825583,19,17,100,86,1.88987581,1
636,9.912866137,10.02620688,12.71823028,12.60458394,0.269762292,0.220355741,9.744662603,9.744662603,0.14850796,0.123639883,32.49366774,33.04820976,11.1798753,19,17,100,86,1.88987581,1
637,9.912427522,10.02862012,12.67368018,12.57022922,0.271073654,0.217951786,9.735165379,9.735165379,0.148461141,0.123622997,32.49341842,33.04753004,11.1798753,19,17,100,86,1.88987581,1
638,9.911763307,10.03341248,12.64842813,12.57094464,0.272323868,0.216326496,9.726518987,9.726518987,0.148416856,0.123610626,32.493109,33.04692654,11.1798753,19,17,100,86,1.88987581,1
639,9.911137586,10.03862222,12.64922041,12.60176872,0.273008266,0.215034323,9.720826013,9.720826013,0.14837053,0.123593322,32.4928658,33.04630722,11.20922255,19,17,100,87,1.88987581,1
640,9.910660856,10.04256432,12.64655693,12.62469461,0.272636761,0.213539922,9.720818468,9.720818468,0.148326794,0.123578487,32.49256648,33.04565461,11.20922255,19,17,100,87,1.88987581,1
641,9.910289685,10.04602814,12.61642995,12.63764142,0.271164211,0.211780058,9.726146809,9.726146809,0.148284828,0.123560141,32.49223885,33.04489352,11.20922255,19,17,100,87,1.88987581,1
642,9.909574547,10.05023215,12.57348807,12.66402102,0.268988865,0.210210055,9.732390588,9.732390588,0.148242694,0.123541333,32.49188145,33.04405539,11.23307151,19,17,100,87,1.88987581,1
643,9.908350256,10.05298821,12.5584708,12.69374631,0.266614263,0.209366306,9.736398587,9.736398587,0.148196191,0.123520708,32.4915551,33.04329485,11.23307151,19,17,100,87,1.88987581,1
644,9.907768819,10.05086175,12.59258536,12.6971153,0.264509588,0.209491527,9.740540526,9.740540526,0.148148007,0.123504714,32.49120703,33.04257004,11.23307151,19,17,100,87,1.88987581,1
645,9.908832623,10.04413098,12.64051585,12.66927144,0.263282886,0.210569334,9.749368471,9.749368471,0.148091896,0.123486513,32.49073595,33.04171001,11.24927734,19,17,100,87,1.88987581,1
646,9.910967289,10.03616795,12.64590617,12.62169939,0.263680723,0.212570685,9.764621386,9.764621386,0.14804305,0.123459743,32.49036132,33.04080835,11.24927734,19,17,100,87,1.88987581,1
647,9.913086312,10.03031252,12.61565777,12.56944382,0.266081481,0.215548477,9.783912308,9.783912308,0.147991874,0.123440253,32.48999598,33.0400222,11.24927734,19,17,100,87,1.88987581,1
648,9.91478483,10.02817686,12.62189884,12.54314728,0.269921639,0.219477627,9.801651158,9.801651158,0.147948949,0.123420829,32.48964352,33.03914471,11.25714457,19,17,100,87,1.88987581,1
649,9.916064884,10.02831507,12.6964167,12.56731848,0.273813497,0.224005448,9.812262087,9.812262087,0.147904504,0.123398445,32.48926821,33.03825674,11.25714457,19,17,100,87,1.88987581,1
650,9.916377495,10.02788118,12.78416382,12.62530303,0.276448374,0.228376147,9.814444412,9.814444412,0.147852562,0.123375767,32.48891941,33.03748245,11.25714457,19,17,100,87,1.88987581,1
651,9.915194813,10.02620045,12.82839712,12.67568098,0.277397939,0.231597244,9.811211311,9.811211311,0.147810051,0.123353179,32.48851256,33.03679828,11.25756241,19,17,100,87,1.88987581,1
652,9.913764532,10.024807,12.83327235,12.68714065,0.27712056,0.232904519,9.8066735,9.8066735,0.147766799,0.123330917,32.48806258,33.03601548,11.25756241,19,17,100,87,1.88987581,1
653,9.914084773,10.02522268,12.82204007,12.6493103,0.276298092,0.232207766,9.804632231,9.804632231,0.147718422,0.123314286,32.48767213,33.03517949,11.25756241,19,17,100,87,1.88987581,1
654,9.916103849,10.02796162,12.79137682,12.5763477,0.275397283,0.230199185,9.808208567,9.808208567,0.147677699,0.12328933,32.4873126,33.03437626,11.25285514,19,17,100,87,1.88987581,1
655,9.917905656,10.03269053,12.73511417,12.50276144,0.274857328,0.227993191,9.818372063,9.818372063,0.147627831,0.123267429,32.48700163,33.03353537,11.25285514,19,17,100,87,1.88987581,1
656,9.917685606,10.03788101,12.6763289,12.45882325,0.275388603,0.22656006,9.832420956,9.832420956,0.147578404,0.123241436,32.48665229,33.03266649,11.25285514,19,17,100,87,1.88987581,1
657,9.914454931,10.04026143,12.63653301,12.44831522,0.277775887,0.226375437,9.844441225,9.844441225,0.147541113,0.123218242,32.48629277,33.03181894,11.24635419,19,17,100,87,1.88987581,1
658,9.909001152,10.03731067,12.60267226,12.46068593,0.282308852,0.227469157,9.848251341,9.848251341,0.147499352,0.123193967,32.48596755,33.03111267,11.24635419,19,17,100,87,1.88987581,1
659,9.904611818,10.03084927,12.55899964,12.49775249,0.288388592,0.229618537,9.84263528,9.84263528,0.147458478,0.123163962,32.48568822,33.03034757,11.24635419,19,17,100,87,1.88987581,1
660,9.904058886,10.02536212,12.51653876,12.56143811,0.294632674,0.232306239,9.833128974,9.833128974,0.14741837,0.123137032,32.48537579,33.02960426,11.24635419,19,17,100,87,1.88987581,1
661,9.906403349,10.02318029,12.49014714,12.61804541,0.299492541,0.234578028,9.824520361,9.824520361,0.147371404,0.12311837,32.48497957,33.02890822,11.24176526,19,17,100,87,1.88987581,1
662,9.909221661,10.02343735,12.47998852,12.61341155,0.302096003,0.235383874,9.815191651,9.815191651,0.147331723,0.123098604,32.4845577,33.02807882,11.24176526,19,17,100,87,1.88987581,1
663,9.911655521,10.02481532,12.48257266,12.5440053,0.302645157,0.234402628,9.803819254,9.803819254,0.147290704,0.123078725,32.48432016,33.02725155,11.24176526,19,17,100,87,1.88987581,1
664,9.913328391,10.02688754,12.50108341,12.47907083,0.301855051,0.232416526,9.795903882,9.795903882,0.147245402,0.123057936,32.48406709,33.02642756,11.24176526,19,17,100,87,1.88987581,1
665,9.913240319,10.02822018,12.54070133,12.48076552,0.300031291,0.230650718,9.797113651,9.797113651,0.14720437,0.123041593,32.48383389,33.02567654,11.24176526,19,17,100,87,1.88987581,1
666,9.911106763,10.0265461,12.59282038,12.53637577,0.296848257,0.229745962,9.803489896,9.803489896,0.147164753,0.123028267,32.48358631,33.0249902,11.2424577,19,17,100,87,1.88987581,1
667,9.908182248,10.02264965,12.63774307,12.59346358,0.29209341,0.229456037,9.804737451,9.804737451,0.147130855,0.123010773,32.4833699,33.02422208,11.2424577,19,17,100,87,1.88987581,1
668,9.906422206,10.02014729,12.67226191,12.62425285,0.286418758,0.229184929,9.79737484,9.79737484,0.14708971,0.122993646,32.48313677,33.023468,11.2424577,19,17,100,87,1.88987581,1
669,9.906887779,10.02039163,12.70467756,12.63058427,0.281144077,0.228591763,9.789344502,9.789344502,0.147055247,0.122978597,32.48291622,33.02281421,11.2424577,19,17,100,87,1.88987581,1
670,9.908753906,10.02139706,12.72319056,12.62059866,0.277290627,0.227703332,9.790108789,9.790108789,0.14701635,0.122964122,32.48275895,33.02222089,11.2508287,19,17,100,88,1.88987581,1
671,9.910398945,10.02163541,12.71476506,12.61314783,0.274894214,0.22669378,9.800896665,9.800896665,0.146993259,0.122957661,32.48258717,33.02150667,11.2508287,19,17,100,88,1.88987581,1
672,9.911078542,10.0215905,12.69379433,12.63529716,0.273250905,0.225709248,9.814533202,9.814533202,0.146965587,0.122952959,32.482446,33.02087477,11.2508287,19,17,100,88,1.88987581,1
673,9.910960451,10.02120057,12.66688103,12.68430741,0.271670009,0.224818561,9.820846487,9.820846487,0.146933535,0.122960111,32.48229806,33.02026944,11.2678793,19,17,100,88,1.88987581,1
674,9.910429305,10.01941938,12.6200102,12.72026598,0.269924058,0.224012843,9.81347775,9.81347775,0.14690644,0.122958445,32.48214525,33.01961501,11.2678793,19,17,100,88,1.88987581,1
675,9.9098049,10.01720095,12.56947521,12.71524242,0.268175192,0.223262099,9.795397819,9.795397819,0.146879594,0.122953971,32.48198422,33.01899799,11.2678793,19,17,100,88,1.88987581,1
676,9.909224697,10.01640988,12.55697102,12.68649084,0.26669289,0.222564143,9.779557981,9.779557981,0.146849272,0.122951949,32.48182831,33.01850239,11.29308858,19,17,100,88,1.88987581,1
677,9.908838001,10.016771,12.58893046,12.67867532,0.265625936,0.221838089,9.782124425,9.782124425,0.146823383,0.12294834,32.48168863,33.0179648,11.29308858,19,17,100,88,1.88987581,1
678,9.908791248,10.0173866,12.63778618,12.71879428,0.264819239,0.220760828,9.810082194,9.810082194,0.1468064,0.122951796,32.48145294,33.01741285,11.29308858,19,17,100,88,1.88987581,1
679,9.908744382,10.0184304,12.68260499,12.78182706,0.263833394,0.218918418,9.852557794,9.852557794,0.146775994,0.122952481,32.48129349,33.01685165,11.32459784,19,17,100,88,1.88987581,1
680,9.90816217,10.01991194,12.70888044,12.81836428,0.262303898,0.216227961,9.888216937,9.888216937,0.146754656,0.122954448,32.48115329,33.01636602,11.32459784,19,17,100,88,1.88987581,1
681,9.906984625,10.02082617,12.70190366,12.8094776,0.260402644,0.213096636,9.903540935,9.903540935,0.146731331,0.122956463,32.48104688,33.01588649,11.32459784,19,17,100,88,1.88987581,1
682,9.905911937,10.01997167,12.66768906,12.76094507,0.258900026,0.210099898,9.900698658,9.900698658,0.146710932,0.122962138,32.48091289,33.01539119,11.35964287,19,17,100,88,1.88987581,1
683,9.906120503,10.01756422,12.63305159,12.6815763,0.258699497,0.207619516,9.889259047,9.889259047,0.146696132,0.122966345,32.48078259,33.01484262,11.35964287,19,17,100,88,1.88987581,1
684,9.907747674,10.01570503,12.61750263,12.60336845,0.260261327,0.205847246,9.877226965,9.877226965,0.146682713,0.122973678,32.48060451,33.0143312,11.35964287,19,17,100,88,1.88987581,1
685,9.909562101,10.01653557,12.62521179,12.56915151,0.263366071,0.204998755,9.870055259,9.870055259,0.146668016,0.122975428,32.48037515,33.01387038,11.39511807,19,17,100,88,1.88987581,1
686,9.91081262,10.02094555,12.6561527,12.57992261,0.267313444,0.205366576,9.869623946,9.869623946,0.14665104,0.122986166,32.48013105,33.01338611,11.39511807,19,17,100,88,1.88987581,1
687,9.911336049,10.02840091,12.7024305,12.6038144,0.271363027,0.20710509,9.870912525,9.870912525,0.146632321,0.123000311,32.4799439,33.01287736,11.39511807,19,17,100,88,1.88987581,1
688,9.910541657,10.03618072,12.7468697,12.62980112,0.2750995,0.209912961,9.86553785,9.86553785,0.146616148,0.123018656,32.47978554,33.01235069,11.42813736,20,17,100,89,1.88987581,1
689,9.908802259,10.04039489,12.78057852,12.66228661,0.278471875,0.212903909,9.851708783,9.851708783,0.146598791,0.123034581,32.47959503,33.0119485,11.42813736,20,17,100,89,1.88987581,1
690,9.908026929,10.03914239,12.79796991,12.67995841,0.281448031,0.214867027,9.835477427,9.835477427,0.146585183,0.123042996,32.47940425,33.01151228,11.42813736,20,17,100,89,1.88987581,1
691,9.909241708,10.03392517,12.77929511,12.65272516,0.283702533,0.214948139,9.820065311,9.820065311,0.146565431,0.123055909,32.47916238,33.01092313,11.4564738,20,17,100,89,1.88987581,1
692,9.911562963,10.02828255,12.71431748,12.59369051,0.284678044,0.21322896,9.802914778,9.802914778,0.14654917,0.123067937,32.47893426,33.01044441,11.4564738,20,17,100,89,1.88987581,1
693,9.913140178,10.02534624,12.62477607,12.55672511,0.284047281,0.210670181,9.785736528,9.785736528,0.146535185,0.123087377,32.47875734,33.00996049,11.4564738,20,17,100,89,1.88987581,1
694,9.912371503,10.02613076,12.54055104,12.58040423,0.282105926,0.208436829,9.776717991,9.776717991,0.146515853,0.123111543,32.47856307,33.00947381,11.47880569,20,17,100,89,1.88987581,1
695,9.909592643,10.02944265,12.47761924,12.64945465,0.279655553,0.207229962,9.780746915,9.780746915,0.146499752,0.123137725,32.4783069,33.0089916,11.47880569,20,17,100,89,1.88987581,1
696,9.906961942,10.0333686,12.4509169,12.71097628,0.277486692,0.20716189,9.794889218,9.794889218,0.146484438,0.123165186,32.47799465,33.00859132,11.47880569,20,17,100,89,1.88987581,1
697,9.906802946,10.03703295,12.48568251,12.71717565,0.275980556,0.208052843,9.81244074,9.81244074,0.146470649,0.123191506,32.4776549,33.00813702,11.49475344,20,18,100,89,1.88987581,1
698,9.910350193,10.04006939,12.58234216,12.65575446,0.27511093,0.209620973,9.826746908,9.826746908,0.146455424,0.123217695,32.47733763,33.00755205,11.49475344,20,18,100,89,1.88987581,1
699,9.916329297,10.04132121,12.6862828,12.55920355,0.274647889,0.211373342,9.833863691,9.833863691,0.14644005,0.123243835,32.47689419,33.00690351,11.5047425,20,18,100,89,1.88987581,1
700,9.921444077,10.04014667,12.73863998,12.48277305,0.274308468,0.212574931,9.83609885,9.83609885,0.146421242,0.123271619,32.47650467,33.00623648,11.5047425,20,18,100,89,1.88987581,1
701,9.92317539,10.0379895,12.73674717,12.46330214,0.273863731,0.212622846,9.839318557,9.839318557,0.146399211,0.123295037,32.4761929,33.00556655,11.5047425,20,18,100,89,1.88987581,1
702,9.921320655,10.03655694,12.71187583,12.49816296,0.273253288,0.211524792,9.844439217,9.844439217,0.14637741,0.123321177,32.4757867,33.00496028,11.50975997,20,18,100,89,1.88987581,1
703,9.917830368,10.035192,12.67696236,12.55139031,0.272608654,0.209928338,9.848048807,9.848048807,0.146353673,0.123346966,32.47535286,33.00433203,11.50975997,20,18,100,89,1.88987581,1
704,9.915193769,10.03251076,12.62739478,12.58342843,0.272183159,0.208715233,9.849219753,9.849219753,0.146332169,0.123375115,32.47482064,33.00367319,11.50975997,20,18,100,89,1.88987581,1
705,9.913889269,10.02962652,12.5798459,12.59112015,0.272310342,0.208578026,9.847659045,9.847659045,0.146310556,0.123401697,32.47428897,33.00312553,11.51108,20,18,100,89,1.88987581,1
706,9.912650957,10.02910647,12.57604747,12.61053258,0.273353715,0.209783389,9.840669057,9.840669057,0.146289345,0.123429522,32.47377607,33.00249015,11.51108,20,18,100,89,1.88987581,1
707,9.911017287,10.03199089,12.64010974,12.67091379,0.275437424,0.212004162,9.828465596,9.828465596,0.14626491,0.123451744,32.47324841,33.00171475,11.51108,20,18,100,89,1.88987581,1
708,9.909751868,10.03699065,12.74926738,12.75760843,0.278104678,0.214338541,9.816288508,9.816288508,0.146234879,0.123472557,32.4727025,33.00081485,11.51002063,20,18,100,89,1.88987581,1
709,9.909596829,10.04177504,12.84556733,12.827681,0.280425135,0.215807916,9.808958405,9.808958405,0.146200805,0.123500341,32.47213736,33.00001403,11.51002063,20,18,100,89,1.88987581,1
710,9.910378863,10.0449525,12.87706644,12.84934422,0.281697985,0.216137641,9.808860287,9.808860287,0.146178256,0.123523596,32.47165156,32.9991535,11.51002063,20,18,100,89,1.88987581,1
711,9.910957183,10.04613224,12.8332406,12.82142095,0.282110614,0.216076552,9.816328218,9.816328218,0.146153113,0.123551031,32.47104361,32.99827052,11.50776869,20,18,100,89,1.88987581,1
712,9.910497877,10.04514676,12.73848998,12.77234014,0.28259029,0.216814055,9.826278699,9.826278699,0.14612408,0.12357597,32.47049494,32.99728657,11.50776869,20,18,100,89,1.88987581,1
713,9.909226096,10.04308537,12.63168277,12.73315504,0.283933629,0.218964372,9.829202968,9.829202968,0.146102374,0.123596653,32.46991175,32.99639922,11.50776869,20,18,100,89,1.88987581,1
714,9.9079194,10.04191916,12.55698681,12.69747932,0.286144093,0.222018218,9.821011325,9.821011325,0.146072612,0.12362481,32.46941441,32.99549166,11.50528221,20,18,100,89,1.88987581,1
715,9.907545439,10.04256994,12.54707733,12.63711928,0.288646792,0.224662553,9.80758105,9.80758105,0.14604335,0.12365637,32.46880929,32.9945045,11.50528221,20,18,100,89,1.88987581,1
716,9.908493555,10.04442588,12.60027714,12.55650042,0.290992888,0.225644436,9.796621023,9.796621023,0.146021811,0.123682481,32.46813515,32.99359349,11.50528221,20,18,100,89,1.88987581,1
717,9.910402842,10.04572409,12.67814599,12.49173854,0.293166985,0.224583911,9.790367168,9.790367168,0.145988791,0.123714303,32.46744277,32.99267439,11.50325785,20,18,100,89,1.88987581,1
718,9.913160602,10.04531997,12.73167943,12.46896317,0.295380009,0.222400426,9.788976112,9.788976112,0.145957613,0.123739484,32.46676019,32.99165052,11.50325785,20,18,100,89,1.88987581,1
719,9.916283198,10.04372527,12.73036364,12.49291024,0.297779472,0.221012568,9.795932248,9.795932248,0.145931175,0.123770105,32.46612777,32.99066038,11.50325785,20,18,100,89,1.88987581,1
720,9.918219715,10.04109514,12.67814496,12.55491501,0.300405153,0.222334296,9.814251521,9.814251521,0.145899728,0.123800705,32.46547445,32.98968299,11.50213907,20,18,100,89,2.329367483,3
721,9.918233686,10.03745556,12.61563866,12.63506398,0.303367147,0.227255524,9.839275527,9.839275527,0.145875669,0.12383159,32.46488151,32.98858514,11.50213907,20,18,100,89,2.329367483,3
722,9.917578044,10.03553503,12.60326834,12.72032696,0.30708776,0.235506091,9.860630777,9.860630777,0.145855117,0.123859019,32.46425927,32.98757115,11.20530654,19,17,100,89,2.329367483,3
723,9.918579203,10.03974697,12.70405709,12.83851906,0.312237876,0.246347301,9.869461905,9.869461905,0.145828636,0.1239004,32.46352643,32.98658448,11.20530654,19,17,100,89,2.329367483,3
724,9.923010058,10.05165715,12.96164082,13.04583451,0.319113872,0.259034104,9.864332755,9.864332755,0.145813369,0.123930371,32.46279093,32.9856357,11.20530654,19,17,100,89,2.329367483,3
725,9.92962447,10.06644357,13.33796431,13.34505927,0.326979377,0.272478373,9.856340754,9.856340754,0.145791225,0.123965228,32.46210437,32.98460635,11.23689346,19,17,100,90,2.329367483,3
726,9.934539898,10.07544875,13.69218816,13.6427265,0.334292984,0.284887568,9.863510673,9.863510673,0.145767784,0.124002949,32.46144665,32.98348088,11.23689346,19,17,100,90,2.329367483,3
727,9.935784208,10.07494463,13.89815068,13.83335592,0.339886563,0.294323484,9.892831217,9.892831217,0.145743212,0.124043096,32.46083449,32.98244891,11.23689346,19,17,100,90,2.329367483,3
728,9.93486258,10.0695113,13.96512752,13.90633085,0.34400239,0.299845693,9.922970422,9.922970422,0.145720119,0.124076961,32.46018483,32.9815254,11.29968339,19,17,100,90,2.329367483,3
729,9.933578592,10.06566487,13.9910178,13.93898786,0.348071487,0.302041278,9.917437958,9.917437958,0.145695073,0.124112953,32.45953835,32.98048501,11.29968339,19,17,100,90,2.329367483,3
730,9.932227467,10.06606041,14.03149868,13.99726971,0.35317417,0.302280413,9.888864672,9.888864672,0.145669792,0.124146535,32.4588275,32.97933665,11.29968339,19,17,100,90,2.329367483,3
731,9.930456132,10.06868118,14.06457759,14.06708317,0.358580307,0.301484413,9.902658527,9.902658527,0.145636827,0.124182057,32.45819552,32.97833544,11.29968339,19,17,100,90,2.329367483,3
732,9.928559132,10.07008825,14.05647659,14.09617137,0.36189326,0.299530645,9.961943845,9.961943845,0.145608817,0.124208755,32.45761604,32.97734906,11.39268447,19,17,100,90,2.329367483,3
733,9.927778439,10.07039815,14.01677034,14.07976781,0.360977015,0.295911467,9.991649764,9.991649764,0.145586867,0.124230164,32.45700599,32.97636473,11.39268447,19,17,100,90,2.329367483,3
734,9.928835051,10.0731567,13.98407434,14.06025759,0.355906733,0.290929314,9.964332999,9.964332999,0.145565981,0.124261516,32.45642774,32.97545584,11.39268447,19,17,100,90,2.329367483,3
735,9.930680547,10.07848593,13.98032968,14.06391894,0.349057084,0.286037564,9.923409726,9.923409726,0.145545784,0.124295635,32.45585097,32.97455827,11.51392458,19,17,100,90,2.329367483,3
736,9.931706074,10.08124883,13.99829777,14.08253854,0.343397304,0.282837248,9.901025828,9.901025828,0.145527751,0.124333162,32.45532804,32.97364683,11.51392458,19,17,100,90,2.329367483,3
737,9.931310983,10.07813828,14.02527034,14.10004791,0.340730836,0.281831431,9.891634463,9.891634463,0.145509541,0.124369965,32.45483943,32.97266035,11.51392458,19,17,100,90,2.329367483,3
738,9.930240856,10.0720502,14.05068634,14.10368961,0.341166455,0.282281311,9.878665477,9.878665477,0.145489944,0.124404381,32.45440226,32.97181049,11.66006115,19,17,100,91,2.329367483,3
739,9.929836464,10.06845633,14.06476624,14.08938993,0.343600676,0.283100974,9.854339722,9.854339722,0.145471876,0.124440877,32.45391184,32.97098695,11.66006115,19,17,100,91,2.329367483,3
740,9.930352246,10.06987353,14.06833282,14.06606583,0.346430977,0.283621876,9.826308176,9.826308176,0.145454337,0.124478143,32.45343904,32.97023419,11.82612224,19,17,100,91,2.329367483,3
741,9.930668157,10.07394703,14.06823637,14.04041023,0.348202242,0.283589619,9.811709528,9.811709528,0.145436504,0.124508476,32.45298498,32.96941968,11.82612224,19,17,100,91,2.329367483,3
742,9.930076182,10.0772899,14.07011384,14.02188103,0.348161853,0.28288445,9.819685114,9.819685114,0.145415487,0.124544421,32.45257446,32.96861997,11.82612224,19,17,100,91,2.329367483,3
743,9.929014761,10.07926187,14.07542533,14.02878164,0.346437448,0.281584483,9.840788262,9.840788262,0.145389356,0.124573591,32.45215538,32.96789205,11.82612224,19,17,100,91,2.329367483,3
744,9.928207433,10.08002201,14.07726734,14.05750879,0.34371237,0.280225671,9.854419567,9.854419567,0.145365198,0.124604296,32.451784,32.96718855,12.0055047,19,17,100,92,2.329367483,3
745,9.928128386,10.07872762,14.07397425,14.08371378,0.34073279,0.279730291,9.846277791,9.846277791,0.145337106,0.124633923,32.45145616,32.96652648,12.0055047,19,17,100,92,2.329367483,3
746,9.928734898,10.07477756,14.07052047,14.10008678,0.338127818,0.280893097,9.822091204,9.822091204,0.145319852,0.124656452,32.4511878,32.96591991,12.0055047,19,17,100,92,2.329367483,3
747,9.929361773,10.06902063,14.06363197,14.12118048,0.336456844,0.283814275,9.802741567,9.802741567,0.145294856,0.124678021,32.450873,32.96538594,12.19029647,19,17,100,92,2.329367483,3
748,9.929582125,10.06426437,14.05444076,14.16336812,0.336070052,0.287707405,9.803050526,9.803050526,0.145267835,0.124699989,32.45058141,32.964826,12.19029647,19,17,100,92,2.329367483,3
749,9.929978825,10.06340143,14.05361559,14.22435142,0.336772421,0.291219162,9.819606049,9.819606049,0.145244103,0.124713633,32.45024535,32.96421404,12.19029647,19,17,100,92,2.329367483,3
750,9.931160169,10.06670181,14.06038684,14.27302158,0.337782902,0.293058012,9.838009778,9.838009778,0.145209576,0.124741104,32.44988638,32.96366022,12.19029647,19,17,100,92,2.329367483,3
751,9.932338104,10.07164673,14.06196599,14.27336114,0.338268657,0.292539201,9.845771985,9.845771985,0.145178257,0.124762066,32.44966081,32.96318719,12.37191054,19,17,100,92,2.329367483,3
752,9.932236908,10.07470076,14.04969083,14.22325737,0.338015803,0.289763713,9.839602785,9.839602785,0.1451489,0.124782487,32.44945548,32.96264589,12.37191054,19,17,100,92,2.329367483,3
753,9.931124692,10.07422008,14.02750281,14.16059398,0.337513504,0.285425704,9.824497855,9.824497855,0.145113618,0.124801598,32.44922411,32.96219324,12.37191054,19,17,100,92,2.329367483,3
754,9.930443063,10.0717847,14.01579551,14.12578953,0.337295516,0.280423912,9.807967732,9.807967732,0.145082432,0.124812478,32.44895769,32.9617944,12.37191054,19,17,100,92,2.329367483,3
755,9.930975885,10.07017242,14.0404582,14.12369915,0.3372108,0.27547766,9.794487368,9.794487368,0.145046852,0.124822623,32.44871952,32.96141381,12.54193848,19,18,100,93,2.329367483,3
756,9.932295042,10.07134523,14.09947433,14.12885793,0.336452762,0.271027367,9.784461405,9.784461405,0.145004529,0.124839329,32.44856917,32.96105412,12.54193848,19,18,100,93,2.329367483,3
757,9.933070418,10.07485443,14.14515149,14.11413258,0.334381603,0.267340357,9.780243608,9.780243608,0.144968066,0.124845736,32.44836139,32.96072021,12.54193848,19,18,100,93,2.329367483,3
758,9.932206351,10.07749147,14.12772739,14.06885074,0.331282096,0.264729763,9.788988841,9.788988841,0.144926281,0.124856965,32.44818099,32.96036059,12.69307279,19,18,100,93,2.329367483,3
759,9.930588564,10.0772496,14.0645265,14.01035729,0.32826574,0.263652471,9.813112135,9.813112135,0.144883721,0.124872102,32.4480693,32.96001734,12.69307279,19,18,100,93,2.329367483,3
760,9.930133118,10.07549205,14.02626605,13.98026733,0.326473897,0.264567375,9.841566792,9.841566792,0.144843149,0.124879867,32.44797478,32.95971128,12.69307279,19,18,100,93,2.329367483,3
761,9.931186804,10.07353003,14.04634694,14.0075847,0.326385956,0.267570859,9.858045689,9.858045689,0.144800617,0.124894663,32.44787319,32.95954632,12.8199237,19,18,100,93,2.329367483,3
762,9.932731188,10.07176698,14.09456669,14.07713073,0.327726412,0.272029437,9.858380484,9.858380484,0.144759886,0.124900571,32.44771572,32.95943081,12.8199237,19,18,100,93,2.329367483,3
763,9.933663592,10.07185813,14.13901984,14.14775666,0.329765103,0.276542225,9.85225259,9.85225259,0.144722753,0.124904136,32.44757363,32.9592535,12.8199237,19,18,100,93,2.329367483,3
764,9.933113377,10.07484961,14.17849225,14.19129493,0.331616186,0.279395466,9.846097458,9.846097458,0.144678059,0.124908281,32.44741957,32.95906755,12.91957459,18,18,100,93,2.329367483,3
765,9.931311987,10.07916717,14.21770886,14.20715947,0.332496745,0.279317975,9.836506721,9.836506721,0.144638508,0.124916534,32.44732031,32.95880645,12.91957459,18,18,100,93,2.329367483,3
766,9.929634127,10.08295562,14.25310253,14.2067136,0.332063411,0.276116334,9.821508019,9.821508019,0.144587405,0.124921848,32.44729899,32.95861899,12.91957459,18,18,100,93,2.329367483,3
767,9.928992137,10.08584077,14.278852,14.19662099,0.330645461,0.27081288,9.804844489,9.804844489,0.144539528,0.124922621,32.44711516,32.9585027,12.99177474,18,18,100,93,2.329367483,3
768,9.929248336,10.08878703,14.28983966,14.18881061,0.329032383,0.265186948,9.789071939,9.789071939,0.144488133,0.124929945,32.44684381,32.95845716,12.99177474,18,18,100,93,2.329367483,3
769,9.929966311,10.09328526,14.28397801,14.2014015,0.327833899,0.260963438,9.774792073,9.774792073,0.144441363,0.124928453,32.44660898,32.95834074,12.99177474,18,18,100,93,2.329367483,3
770,9.930791508,10.09956429,14.26751326,14.23166659,0.326974052,0.259243918,9.766009774,9.766009774,0.144389981,0.12492756,32.44629592,32.95809185,13.03874474,18,18,100,92,2.329367483,3
771,9.931715199,10.10625397,14.25965222,14.25288029,0.32583696,0.260344467,9.767092585,9.767092585,0.144335418,0.124927295,32.44605866,32.95775559,13.03874474,18,18,100,92,2.329367483,3
772,9.932899806,10.1105265,14.27619511,14.24519941,0.324006049,0.263907557,9.773653033,9.773653033,0.144288969,0.124920894,32.44579708,32.9575472,13.03874474,18,18,100,92,2.329367483,3
773,9.933928973,10.10836351,14.30405193,14.21769802,0.321839156,0.26889818,9.774794948,9.774794948,0.144240807,0.124919331,32.44537458,32.95744131,13.0646495,18,18,100,92,2.329367483,3
774,9.934369798,10.09841304,14.30916643,14.19134209,0.32030024,0.273627726,9.765941175,9.765941175,0.144190958,0.124914191,32.44495685,32.95725791,13.0646495,18,18,100,92,2.329367483,3
775,9.93437865,10.08522346,14.2677074,14.16553556,0.320274056,0.276301295,9.753600751,9.753600751,0.14415202,0.124904694,32.44460459,32.95701906,13.0646495,18,18,100,92,2.329367483,3
776,9.933865795,10.07571072,14.18794886,14.1244743,0.321992643,0.276050556,9.747961919,9.747961919,0.144108859,0.124900172,32.44423702,32.95681411,13.07485579,18,18,100,92,2.329367483,3
777,9.93270576,10.07329029,14.10572785,14.07037114,0.32490815,0.27355345,9.755472788,9.755472788,0.144066024,0.12489926,32.44390279,32.95653062,13.07485579,18,18,100,92,2.329367483,3
778,9.931652321,10.07649086,14.05203386,14.02781642,0.32798249,0.270483621,9.776357275,9.776357275,0.144028606,0.124892564,32.44354056,32.95619672,13.07485579,18,18,100,92,2.329367483,3
779,9.931626673,10.08141117,14.03189517,14.02118107,0.33020749,0.268250365,9.804504084,9.804504084,0.143983808,0.124887722,32.44305586,32.95579782,13.07512377,18,18,100,91,2.329367483,3
780,9.932619719,10.0840764,14.03772545,14.04935202,0.331056558,0.267267275,9.831262881,9.831262881,0.143945405,0.124879284,32.44257956,32.95544807,13.07512377,18,18,100,91,2.329367483,3
781,9.93365635,10.08221,14.06082402,14.08260647,0.330607638,0.267329467,9.851742165,9.851742165,0.143906086,0.124868681,32.44203471,32.95514056,13.07512377,18,18,100,91,2.329367483,3
782,9.933811075,10.07662485,14.08259781,14.09912029,0.329370783,0.268457087,9.866399532,9.866399532,0.143863209,0.124857286,32.44146468,32.95475974,13.07087817,18,18,100,91,2.329367483,3
783,9.933379405,10.07055521,14.08958279,14.10925641,0.328096263,0.271226164,9.875003611,9.875003611,0.143826644,0.124842828,32.44089175,32.95432096,13.07087817,18,18,100,91,2.329367483,3
784,9.933408942,10.06735745,14.10191366,14.12211761,0.32766085,0.276368598,9.872151216,9.872151216,0.143788072,0.124825512,32.44037773,32.95379165,13.07087817,18,18,100,91,2.329367483,3
785,9.933849005,10.06847354,14.13954118,14.12190116,0.328876363,0.284159974,9.853617645,9.853617645,0.143750489,0.124814427,32.43977985,32.95321106,13.07087817,18,18,100,91,2.329367483,3
786,9.933312363,10.07263274,14.18184603,14.10227668,0.332123244,0.294045572,9.825286074,9.825286074,0.143720462,0.124794453,32.43916371,32.95263634,13.06667134,18,18,100,91,2.329367483,3
787,9.931128562,10.07649923,14.2012143,14.0851965,0.337030704,0.304561304,9.801968257,9.801968257,0.143686213,0.124779514,32.43858169,32.95200581,13.06667134,18,18,100,91,2.329367483,3
788,9.928313747,10.07677006,14.1983901,14.09435509,0.34252407,0.313560432,9.79633951,9.79633951,0.143655972,0.12476848,32.43794697,32.95135063,13.06667134,18,18,100,91,2.329367483,3
789,9.926336402,10.07320867,14.19185436,14.13720115,0.347292671,0.318844924,9.807057129,9.807057129,0.143631053,0.124758303,32.43732086,32.95066317,13.06667134,18,18,100,91,2.329367483,3
790,9.925750193,10.06933544,14.19901079,14.20213753,0.350393181,0.319063225,9.820105998,9.820105998,0.143599925,0.124744425,32.43672591,32.94999316,13.06667134,18,18,100,91,2.329367483,3
791,9.925989004,10.06852594,14.22332851,14.26238959,0.351579698,0.314367736,9.826094404,9.826094404,0.143569943,0.12472669,32.43600679,32.94920279,13.06589651,18,18,100,90,2.329367483,3
792,9.926425076,10.0705352,14.25407888,14.29706991,0.351153863,0.306353724,9.829113813,9.829113813,0.143542998,0.124704971,32.43527758,32.94839117,13.06589651,18,18,100,90,2.329367483,3
793,9.92710726,10.07359484,14.29004491,14.30759234,0.34956708,0.29734971,9.833978551,9.833978551,0.143516275,0.124693007,32.43453971,32.94743313,13.06589651,18,18,100,90,2.329367483,3
794,9.928340559,10.07719409,14.34468743,14.3015088,0.347238063,0.289644169,9.836235408,9.836235408,0.143495689,0.124679136,32.43386222,32.9464122,13.07075154,18,18,100,90,2.329367483,3
795,9.930059276,10.07985568,14.40360239,14.27130715,0.344685176,0.284989827,9.830028881,9.830028881,0.143477494,0.12466658,32.43322476,32.94538684,13.07075154,18,18,100,90,2.329367483,3
796,9.931253952,10.07822503,14.41937137,14.2137057,0.342628989,0.284296508,9.818760504,9.818760504,0.143459372,0.124655374,32.43242644,32.94427291,13.07075154,18,18,100,90,2.329367483,3
797,9.930185368,10.07176826,14.37309723,14.15277873,0.341693442,0.28717604,9.815383154,9.815383154,0.143446808,0.124641585,32.43161874,32.94317781,13.08240216,18,18,100,90,2.329367483,3
798,9.926679998,10.06420283,14.29891585,14.11384455,0.341950326,0.291899182,9.832935054,9.832935054,0.143432829,0.124632411,32.43085364,32.94203356,13.08240216,18,18,100,90,2.329367483,3
799,9.923822571,10.05864095,14.24040297,14.09817086,0.342787086,0.29614789,9.872770978,9.872770978,0.143417693,0.124624049,32.43008943,32.94082015,13.08240216,18,18,100,90,2.329367483,3
800,9.92496585,10.05496192,14.21519783,14.10672858,0.343282999,0.298163163,9.919315601,9.919315601,0.143405279,0.124608453,32.42932748,32.93950236,13.10126031,18,18,100,90,2.329367483,3
801,9.929361503,10.05225851,14.22523559,14.14884117,0.34277323,0.297409923,9.949840483,9.949840483,0.143390328,0.124603692,32.4285691,32.93819508,13.10126031,18,18,100,90,2.329367483,3
802,9.933074526,10.05084503,14.26715687,14.20610963,0.341146642,0.294439256,9.95510625,9.95510625,0.143381793,0.124595916,32.42779369,32.93693125,13.10126031,18,18,100,90,2.329367483,3
803,9.933953237,10.05083349,14.31504096,14.23857896,0.338736348,0.29033812,9.946113365,9.946113365,0.143378353,0.124588206,32.42698696,32.93552263,13.12728131,19,18,100,90,2.329367483,3
804,9.933339377,10.05152486,14.32732904,14.23961391,0.336039053,0.286180327,9.937748246,9.937748246,0.143377136,0.12458454,32.4262562,32.93412634,13.12728131,19,18,100,90,2.329367483,3
805,9.932936305,10.05321839,14.29228155,14.23737056,0.333569475,0.282621882,9.933427197,9.933427197,0.143379864,0.12457528,32.42553297,32.93266074,13.12728131,19,18,100,90,2.329367483,3
806,9.932699513,10.05649484,14.23877321,14.2468886,0.331883917,0.279781232,9.928024198,9.928024198,0.143380585,0.1245733,32.42481838,32.93121382,13.16019466,19,18,100,90,2.329367483,3
807,9.932182427,10.06102059,14.20350853,14.26143247,0.331526412,0.277510042,9.918676759,9.918676759,0.143377778,0.124572843,32.42411349,32.92972822,13.16019466,19,18,100,90,2.329367483,3
808,9.93158752,10.06673548,14.21544138,14.27958282,0.332740852,0.275776446,9.907407077,9.907407077,0.143383937,0.1245699,32.4234193,32.92821558,13.16019466,19,18,100,90,2.329367483,3
809,9.931231494,10.07300556,14.28637916,14.30735644,0.335160074,0.274749838,9.895458917,9.895458917,0.143387869,0.12457697,32.42275861,32.92670351,13.19961361,19,18,100,90,2.329367483,3
810,9.931436752,10.0780719,14.38677223,14.34111106,0.337823782,0.274511672,9.881481553,9.881481553,0.143396656,0.124584104,32.42214788,32.92526617,13.19961361,19,18,100,90,2.329367483,3
811,9.932389055,10.08119682,14.459561,14.37217646,0.339618382,0.274852889,9.865320165,9.865320165,0.143411579,0.124587824,32.42152751,32.9237819,13.19961361,19,18,100,90,2.329367483,3
812,9.933735728,10.082671,14.47422842,14.39935152,0.339840158,0.275416525,9.848258611,9.848258611,0.143420051,0.124596001,32.42093053,32.92219635,13.24501156,19,18,100,90,2.329367483,3
813,9.934915341,10.08303571,14.44766507,14.42200215,0.338496639,0.275959061,9.830505176,9.830505176,0.143430567,0.124602245,32.42028321,32.92066889,13.24501156,19,18,100,90,2.329367483,3
814,9.935137954,10.08385784,14.41584608,14.43003231,0.336176713,0.276387938,9.81296951,9.81296951,0.143441662,0.124613181,32.41970405,32.91913675,13.24501156,19,18,100,90,2.329367483,3
815,9.933541072,10.08609105,14.39812563,14.41080361,0.333665166,0.276627318,9.800138306,9.800138306,0.143453123,0.124627506,32.41912969,32.91760136,13.29559769,19,18,100,91,2.329367483,3
816,9.930745711,10.08787049,14.38639406,14.36976437,0.331656946,0.276633628,9.795753503,9.795753503,0.143470348,0.124642594,32.41853387,32.91612486,13.29559769,19,18,100,91,2.329367483,3
817,9.928775043,10.0868529,14.363717,14.3363055,0.330682053,0.276601994,9.796970462,9.796970462,0.143490326,0.124657177,32.41790712,32.91462643,13.29559769,19,18,100,91,2.329367483,3
818,9.928390449,10.08350329,14.32567042,14.33420377,0.331008738,0.276988617,9.798258319,9.798258319,0.143508641,0.124679108,32.4173291,32.91321638,13.35015888,19,18,100,91,2.329367483,3
819,9.928506108,10.08012001,14.28615154,14.35573875,0.33245863,0.278094647,9.797861761,9.797861761,0.143532046,0.124695986,32.41676627,32.91182913,13.35015888,19,18,100,91,2.329367483,3
820,9.928425882,10.07753487,14.26648795,14.37484302,0.334461497,0.279583464,9.796554911,9.796554911,0.143556213,0.124723164,32.41619323,32.91046851,13.35015888,19,18,100,91,2.329367483,3
821,9.928575398,10.07509101,14.27146752,14.37049811,0.336492454,0.280607579,9.793891387,9.793891387,0.143581219,0.124749962,32.41552571,32.90907053,13.40694815,19,19,100,91,2.329367483,3
822,9.929282531,10.07368028,14.28268907,14.33659804,0.338464676,0.28060614,9.7882166,9.7882166,0.143612245,0.124786106,32.41501183,32.90766031,13.40694815,19,19,100,91,2.329367483,3
823,9.930346116,10.07530257,14.2869743,14.28731061,0.340564787,0.279912152,9.779879702,9.779879702,0.14363363,0.124829668,32.41453058,32.9063757,13.40694815,19,19,100,91,2.329367483,3
824,9.931528645,10.0797894,14.29804041,14.2518712,0.34275603,0.279444379,9.77322653,9.77322653,0.14365922,0.124875165,32.41400484,32.90504553,13.40694815,19,19,100,91,2.329367483,3
825,9.932627824,10.08467429,14.33464255,14.2496855,0.344595435,0.279838316,9.773546506,9.773546506,0.143685626,0.124921703,32.41350143,32.90381574,13.46368733,19,19,100,91,2.329367483,3
826,9.933602906,10.08775151,14.39034013,14.27350186,0.345646361,0.281009876,9.783312036,9.783312036,0.143711311,0.12497548,32.41299116,32.90262373,13.46368733,19,19,100,91,2.329367483,3
827,9.934785334,10.08854086,14.43794479,14.30214196,0.34591283,0.282425838,9.801473802,9.801473802,0.14373427,0.125034946,32.41254411,32.90139805,13.46368733,19,19,100,91,2.329367483,3
828,9.935943899,10.08734614,14.45174677,14.31625257,0.345642451,0.283522666,9.822372856,9.822372856,0.143757592,0.125097269,32.41223496,32.90016688,13.51771551,19,19,100,91,2.329367483,3
829,9.936203842,10.08448924,14.42296109,14.30293961,0.344764481,0.283913199,9.836389114,9.836389114,0.143777731,0.125165753,32.41185852,32.89908239,13.51771551,19,19,100,91,2.329367483,3
830,9.935675944,10.08102119,14.36214629,14.26222917,0.342854835,0.283578987,9.838173747,9.838173747,0.143793286,0.125239782,32.41137059,32.89805954,13.51771551,19,19,100,91,2.329367483,3
831,9.935121923,10.07834269,14.29326298,14.21224602,0.339825301,0.283083645,9.833043588,9.833043588,0.143814277,0.125319748,32.4108836,32.8971307,13.51771551,19,19,100,91,2.329367483,3
832,9.934484731,10.07700412,14.24729225,14.18417547,0.336458723,0.283343894,9.829693471,9.829693471,0.143824412,0.125404732,32.41037336,32.89621056,13.56626769,19,19,100,91,2.329367483,3
833,9.933655193,10.07648088,14.23708374,14.2055617,0.33401988,0.28477844,9.831948382,9.831948382,0.143838443,0.125493539,32.40996001,32.89521129,13.56626769,19,19,100,91,2.329367483,3
834,9.933018718,10.07638117,14.24059253,14.27360688,0.333301966,0.286606946,9.840969722,9.840969722,0.143847538,0.125592307,32.40949821,32.89426647,13.56626769,19,19,100,91,2.329367483,3
835,9.93265266,10.07783628,14.23637558,14.3440803,0.334103333,0.287260765,9.856762339,9.856762339,0.14385266,0.125694593,32.40892493,32.89339045,13.60682492,19,19,100,91,2.329367483,3
836,9.932684424,10.08210278,14.23086759,14.36378626,0.335597472,0.285641133,9.875441108,9.875441108,0.14385468,0.125808909,32.40853934,32.892429,13.60682492,19,19,100,91,2.329367483,3
837,9.933574212,10.08778597,14.23501479,14.31594063,0.337120081,0.28199313,9.890944541,9.890944541,0.143851856,0.125927633,32.40815604,32.8914532,13.60682492,19,19,100,91,2.329367483,3
838,9.935266806,10.09147467,14.24835432,14.23035275,0.338594568,0.277599276,9.900548024,9.900548024,0.143851015,0.126055933,32.40766109,32.89053081,13.637453,20,19,100,92,2.329367483,3
839,9.937353774,10.09189474,14.26868514,14.15617349,0.34026068,0.273796551,9.905332596,9.905332596,0.143849481,0.126190785,32.40721258,32.88983953,13.637453,20,19,100,92,2.329367483,3
840,9.939481653,10.0914343,14.28963232,14.12154601,0.342132069,0.271227105,9.905169392,9.905169392,0.143845086,0.126336835,32.40684046,32.88910076,13.637453,20,19,100,92,2.329367483,3
841,9.940960069,10.09228746,14.29597748,14.11753777,0.34383547,0.269739955,9.897297437,9.897297437,0.143836679,0.126489769,32.40653973,32.8883326,13.65704947,20,19,100,92,2.329367483,3
842,9.941510256,10.09364188,14.28291606,14.12195653,0.344919353,0.268794583,9.881637726,9.881637726,0.143827153,0.126650912,32.40624241,32.8875991,13.65704947,20,19,100,92,2.329367483,3
843,9.941613324,10.09358351,14.26728548,14.12437051,0.345158318,0.267953535,9.86744477,9.86744477,0.143813568,0.126823935,32.40595016,32.88684635,13.65704947,20,19,100,92,2.329367483,3
844,9.941239462,10.09154511,14.27132363,14.12393155,0.344571811,0.267096397,9.871791112,9.871791112,0.14379948,0.127003412,32.40559706,32.88604532,13.66544498,20,20,100,92,2.329367483,3
845,9.940005026,10.08853925,14.30783877,14.11912314,0.343310595,0.266318189,9.9026401,9.9026401,0.143783584,0.127196529,32.40520659,32.8853095,13.66544498,20,20,100,92,2.329367483,3
846,9.938075211,10.0858059,14.37352121,14.11105173,0.341534508,0.265760028,9.943288012,9.943288012,0.143762805,0.127393611,32.40486949,32.88449236,13.66334543,20,20,100,92,2.329367483,3
847,9.936093392,10.0830192,14.4473096,14.11401808,0.339289527,0.26550711,9.965628472,9.965628472,0.143746105,0.127602605,32.40438325,32.88370423,13.66334543,20,20,100,92,2.329367483,3
848,9.934865255,10.0785043,14.50155981,14.14634552,0.336532899,0.265485147,9.958342879,9.958342879,0.143721675,0.127813712,32.40391961,32.88287261,13.66334543,20,20,100,92,2.329367483,3
849,9.934492557,10.07244063,14.51772247,14.20437384,0.333409849,0.265434404,9.931302721,9.931302721,0.14369973,0.128037321,32.40359019,32.88202709,13.65214074,20,20,100,92,2.329367483,3
850,9.934216253,10.06824123,14.49464468,14.25655744,0.330389752,0.265149304,9.898433071,9.898433071,0.143676684,0.12826703,32.40327581,32.88116108,13.65214074,20,20,100,92,2.329367483,3
851,9.933688919,10.06884447,14.44726221,14.26912642,0.327997557,0.264808879,9.868719384,9.868719384,0.143650671,0.128508017,32.40304109,32.88028554,13.65214074,20,20,100,92,2.329367483,3
852,9.93345069,10.07317745,14.39454139,14.23831804,0.326388754,0.264926219,9.847728086,9.847728086,0.143622254,0.128761314,32.40272653,32.87933804,13.63363361,20,20,100,92,2.329367483,3
853,9.934194709,10.07746162,14.346134,14.19021796,0.325233329,0.265887771,9.83688659,9.83688659,0.143591916,0.12901933,32.40236263,32.8783908,13.63363361,20,20,100,92,2.329367483,3
854,9.935902763,10.07881702,14.30612819,14.15783209,0.324014732,0.267622441,9.833425803,9.833425803,0.143556565,0.129278343,32.40202167,32.8774556,13.63363361,20,20,100,92,2.329367483,3
855,9.937661163,10.07701737,14.28153445,14.16386727,0.322501038,0.269772671,9.835008824,9.835008824,0.143527332,0.129548071,32.40164545,32.87650797,13.60975062,20,20,100,92,2.329367483,3
856,9.938572466,10.0735708,14.27413866,14.20055317,0.321059882,0.272138167,9.841425345,9.841425345,0.143496459,0.129815215,32.40136231,32.87553011,13.60975062,20,20,100,92,2.329367483,3
857,9.938346272,10.07042731,14.27180639,14.22887163,0.320536055,0.27492447,9.850516893,9.850516893,0.143465049,0.130090387,32.4011185,32.87452069,13.60975062,20,20,100,92,2.329367483,3
858,9.937340085,10.06961476,14.26042563,14.21900042,0.321654921,0.278564218,9.858206933,9.858206933,0.14343453,0.130375831,32.40076236,32.87348384,13.58229023,20,20,100,92,2.329367483,3
859,9.936752091,10.07232927,14.24573335,14.18207219,0.324383856,0.283227049,9.864079298,9.864079298,0.143401831,0.130659901,32.40040095,32.87241858,13.58229023,20,20,100,92,2.329367483,3
860,9.937488634,10.07711042,14.25355686,14.15309933,0.327862565,0.2883438,9.869867391,9.869867391,0.143376632,0.130950586,32.40003913,32.87142084,13.55274384,20,20,100,92,2.329367483,3
861,9.938917623,10.08021064,14.30136308,14.16035604,0.331004976,0.292533663,9.874363731,9.874363731,0.143349354,0.131242132,32.39955678,32.87039242,13.55274384,20,20,100,92,2.329367483,3
862,9.939592517,10.07977671,14.37908078,14.21465733,0.333113452,0.294059567,9.87651375,9.87651375,0.143319951,0.131532868,32.39914342,32.86925576,13.55274384,20,20,100,92,2.329367483,3
863,9.938655677,10.07817293,14.45517109,14.29650647,0.33403463,0.29176923,9.87784633,9.87784633,0.143290358,0.131831829,32.39879906,32.86812201,13.52220434,20,20,100,92,2.329367483,3
864,9.936834749,10.07835197,14.49003668,14.35813067,0.333916467,0.285850031,9.877953181,9.877953181,0.143260378,0.132129465,32.39844832,32.86697475,13.52220434,20,20,100,92,2.329367483,3
865,9.935604136,10.08030921,14.45953878,14.37481307,0.333034796,0.27781417,9.873110371,9.873110371,0.143228512,0.132427804,32.39814729,32.86579109,13.52220434,20,20,100,92,2.329367483,3
866,9.935238111,10.08205503,14.37598088,14.36508853,0.3318234,0.269731835,9.862938561,9.862938561,0.143208008,0.132715995,32.39775645,32.86461791,13.49135783,20,20,100,92,2.329367483,3
867,9.935137604,10.08204328,14.27598808,14.34396253,0.330902435,0.263373278,9.855233593,9.855233593,0.143188551,0.133010297,32.39735613,32.8634401,13.49135783,20,20,100,92,2.329367483,3
868,9.935495517,10.08050076,14.1962021,14.31349949,0.330967938,0.259799312,9.857164699,9.857164699,0.143168096,0.133298905,32.39695112,32.86222269,13.49135783,20,20,100,92,2.329367483,3
869,9.93687655,10.07931773,14.16450923,14.29268321,0.332581193,0.259350708,9.863882163,9.863882163,0.143148762,0.133586629,32.39648996,32.8611092,13.49135783,20,20,100,92,2.329367483,3
870,9.938572894,10.08039679,14.18998481,14.29908503,0.335879784,0.261731719,9.865742709,9.865742709,0.143127325,0.133868979,32.39601495,32.85990766,13.46054193,20,20,100,92,2.329367483,3
871,9.939316424,10.08347267,14.2560787,14.32175511,0.340281544,0.266049692,9.861745872,9.861745872,0.143106936,0.134142424,32.39554923,32.85869435,13.46054193,20,20,100,92,2.329367483,3
872,9.938884955,10.08627043,14.33164246,14.34251828,0.344503126,0.270887353,9.855237738,9.855237738,0.143086131,0.13440853,32.39503933,32.85757272,13.46054193,20,20,100,92,2.329367483,3
873,9.937801307,10.08715295,14.38264106,14.34948701,0.34714734,0.27462783,9.844928459,9.844928459,0.143068568,0.134666693,32.39460798,32.85637554,13.4298476,20,20,100,92,2.329367483,3
874,9.936971109,10.08623985,14.38531625,14.33187283,0.347483769,0.276131907,9.829692965,9.829692965,0.143054593,0.134918784,32.39425232,32.85512547,13.4298476,20,20,100,92,2.329367483,3
875,9.937144964,10.0846071,14.34655821,14.30236801,0.345673453,0.275342777,9.815113339,9.815113339,0.143043101,0.135161725,32.39384582,32.85398057,13.4298476,20,20,100,92,2.329367483,3
876,9.937727009,10.08350805,14.30051853,14.29537703,0.34228972,0.273159175,9.807529728,9.807529728,0.143026538,0.135430337,32.39342889,32.85285505,13.39924056,20,20,100,92,2.329367483,3
877,9.937730151,10.08345136,14.27661153,14.31490898,0.337797503,0.270698886,9.807376249,9.807376249,0.143013719,0.135902763,32.39295572,32.85172598,13.39924056,20,20,100,92,2.329367483,3
878,9.937143717,10.08346682,14.27638481,14.32428835,0.332536425,0.268744509,9.813714987,9.813714987,0.14300009,0.136413003,32.39256327,32.85057145,13.39924056,20,20,100,92,2.329367483,3
879,9.93649996,10.08208859,14.28100505,14.29250324,0.327035224,0.267774491,9.827677621,9.827677621,0.142988385,0.136922534,32.39205798,32.84943087,13.36867911,20,20,100,92,2.329367483,3
880,9.936645343,10.0797703,14.28380362,14.22427454,0.322170171,0.268114917,9.847807309,9.847807309,0.142980756,0.137400141,32.39145586,32.84837959,13.36867911,20,20,100,92,2.329367483,3
881,9.937931988,10.0783524,14.30413266,14.156939,0.318980052,0.269826444,9.868491364,9.868491364,0.142973099,0.137770204,32.39087223,32.84737944,13.33820859,20,20,100,92,2.329367483,3
882,9.939176955,10.07852392,14.35267847,14.13744655,0.318252491,0.272581018,9.883082495,9.883082495,0.142963767,0.138131735,32.39020892,32.84642229,13.33820859,20,20,100,92,2.329367483,3
883,9.939057448,10.08097171,14.40489404,14.18976113,0.320081397,0.275804302,9.885551838,9.885551838,0.142958468,0.138483497,32.38954957,32.84542493,13.33820859,20,20,100,92,2.329367483,3
884,9.937832715,10.08715728,14.42722785,14.29054666,0.323641199,0.278888913,9.874767832,9.874767832,0.142953777,0.13883523,32.38893966,32.84448001,13.30801599,20,20,100,91,2.329367483,3
885,9.936824411,10.09529111,14.40561409,14.37371987,0.327408579,0.281288602,9.858050066,9.858050066,0.142951186,0.139190852,32.38828087,32.84360406,13.30801599,20,20,100,91,2.329367483,3
886,9.936741166,10.09962795,14.34364773,14.38236466,0.329849623,0.282672301,9.845604533,9.845604533,0.142955568,0.139548772,32.38761337,32.84271359,13.30801599,20,20,100,91,2.329367483,3
887,9.936799185,10.09723341,14.26193535,14.3285317,0.330240275,0.283174532,9.843432653,9.843432653,0.142963957,0.139909185,32.38698878,32.8419162,13.27843398,20,20,100,91,2.329367483,3
888,9.935955238,10.09213487,14.19257583,14.27821815,0.329064426,0.283351195,9.850103203,9.850103203,0.142978687,0.140272924,32.38637068,32.84109781,13.27843398,20,20,100,91,2.329367483,3
889,9.934337961,10.09035634,14.15288973,14.27092581,0.327651835,0.283677737,9.85681119,9.85681119,0.142995422,0.140633394,32.3857771,32.84027496,13.27843398,20,20,100,91,2.329367483,3
890,9.932794023,10.09272518,14.13707444,14.28327849,0.327291496,0.284095904,9.85375865,9.85375865,0.143012175,0.140995197,32.38525223,32.83943776,13.24989086,20,20,100,91,2.329367483,3
891,9.932510038,10.09451038,14.13475679,14.27934837,0.32842241,0.28411427,9.838315549,9.838315549,0.143031305,0.141356198,32.3845864,32.83861964,13.24989086,20,20,100,91,2.329367483,3
892,9.934239853,10.09217658,14.14079038,14.26262099,0.330390785,0.283317938,9.818262763,9.818262763,0.143052552,0.141713892,32.38385259,32.83782384,13.24989086,20,20,100,91,2.329367483,3
893,9.936376823,10.08791802,14.15618632,14.25959371,0.331851392,0.281718463,9.806623624,9.806623624,0.14307731,0.14206286,32.38320344,32.83711853,13.22281328,20,20,100,91,2.329367483,3
894,9.936700707,10.08610457,14.19557995,14.27922391,0.331548624,0.279595739,9.808353961,9.808353961,0.1431048,0.14241012,32.38253059,32.83642857,13.22281328,20,20,100,91,2.329367483,3
895,9.935963031,10.08829441,14.27761293,14.31288728,0.329073121,0.277044474,9.815256365,9.815256365,0.143137142,0.142755225,32.38187196,32.83580461,13.22281328,20,20,100,91,2.329367483,3
896,9.935970213,10.09295337,14.38932152,14.34952086,0.325233342,0.273861218,9.819950003,9.819950003,0.143169266,0.143089023,32.38107215,32.83519062,13.19749964,20,20,100,91,2.329367483,3
897,9.936446235,10.09770524,14.47858723,14.37510409,0.321784289,0.270102765,9.827148639,9.827148639,0.143201086,0.143414905,32.38030023,32.83463428,13.19749964,20,20,100,91,2.329367483,3
898,9.936250226,10.10094728,14.50268878,14.38807019,0.320485758,0.266657858,9.84388046,9.84388046,0.143236344,0.14373307,32.37958576,32.83404176,13.19749964,20,20,100,91,2.329367483,3
899,9.935281998,10.10233131,14.47935538,14.41287245,0.321959883,0.264834103,9.86755846,9.86755846,0.143278764,0.144034499,32.37884613,32.83338099,13.17399148,21,20,100,91,2.329367483,3
900,9.934652097,10.1025647,14.47211472,14.46204269,0.325202173,0.265137213,9.890169332,9.890169332,0.143323812,0.144321479,32.37803699,32.83274799,13.17399148,21,20,100,91,2.329367483,3
901,9.935420648,10.10206448,14.51564842,14.49378579,0.328279756,0.266661172,9.907246897,9.907246897,0.143368247,0.144596616,32.37723592,32.83215979,13.17399148,21,20,100,91,2.329367483,3
902,9.937391448,10.10009239,14.58005201,14.45288947,0.329711108,0.267905256,9.918149403,9.918149403,0.143416713,0.144856538,32.37634366,32.83153816,13.15197548,21,20,100,91,2.329367483,3
903,9.939400625,10.09727957,14.62250416,14.35740653,0.329501137,0.268166334,9.918979517,9.918979517,0.143462983,0.145095892,32.37542011,32.83100356,13.15197548,21,20,100,91,2.329367483,3
904,9.940021554,10.09668973,14.63797241,14.29151627,0.328991738,0.268079823,9.901147006,9.901147006,0.14350984,0.145317995,32.37459918,32.83054088,13.13074533,21,20,100,91,2.329367483,3
905,9.938816105,10.09917567,14.6445897,14.30413075,0.329736297,0.268938486,9.863868639,9.863868639,0.143560311,0.145518996,32.37391229,32.83001786,13.13074533,21,20,100,91,2.329367483,3
906,9.937051182,10.10137676,14.65409312,14.37072828,0.33233516,0.271570518,9.822060837,9.822060837,0.14361551,0.145696355,32.37309861,32.82964549,13.13074533,21,20,100,91,2.329367483,3
907,9.935948937,10.10018043,14.66465439,14.44858372,0.336079011,0.275710961,9.794057368,9.794057368,0.143665263,0.145857107,32.37229425,32.82924481,13.10924123,21,20,100,91,2.329367483,3
908,9.935593848,10.09568875,14.66187671,14.51269698,0.339522816,0.2802484,9.787558112,9.787558112,0.143720441,0.145988937,32.37153582,32.82879384,13.10924123,21,20,100,91,2.329367483,3
909,9.935595913,10.09058144,14.62848227,14.5468329,0.341475353,0.28406221,9.799284011,9.799284011,0.143776448,0.146104468,32.3706517,32.82840746,13.10924123,21,20,100,91,2.329367483,3
910,9.935376568,10.08789873,14.55890678,14.54264736,0.341719514,0.286747361,9.820957875,9.820957875,0.143829252,0.146196451,32.3697622,32.82798527,13.08616728,20,20,100,91,2.329367483,3
911,9.934774448,10.08807434,14.46886213,14.50455071,0.341000434,0.288677233,9.845740378,9.845740378,0.143889704,0.146264906,32.36890618,32.82758964,13.08616728,20,20,100,91,2.329367483,3
912,9.934352544,10.08873533,14.3914355,14.43892141,0.340346133,0.290486247,9.871616032,9.871616032,0.143946088,0.146311573,32.36809873,32.8271758,13.08616728,20,20,100,91,2.329367483,3
913,9.934499678,10.08775083,14.35228928,14.35754372,0.340315217,0.292493164,9.898692695,9.898692695,0.144007363,0.146340206,32.36740164,32.82678269,13.06016773,20,20,100,92,2.329367483,3
914,9.935068057,10.0857019,14.34838577,14.28869807,0.340726511,0.294476693,9.925732806,9.925732806,0.144068556,0.146339954,32.36656458,32.82638122,13.06016773,20,20,100,92,2.329367483,3
915,9.935611518,10.08482722,14.3596124,14.2562289,0.340869893,0.295814493,9.947139528,9.947139528,0.144123849,0.146321403,32.36579163,32.82591337,13.06016773,20,20,100,92,2.329367483,3
916,9.935659622,10.08552784,14.37596652,14.26115006,0.339903534,0.295865106,9.954154816,9.954154816,0.14417334,0.146282986,32.36509666,32.8255116,13.0300285,20,20,100,92,2.329367483,3
917,9.935080105,10.08546414,14.39823618,14.28942112,0.337298238,0.294388263,9.94518832,9.94518832,0.144229233,0.146226593,32.36434918,32.82513839,13.0300285,20,20,100,92,2.329367483,3
918,9.933852885,10.08276358,14.41983036,14.31845643,0.333219686,0.291866843,9.929236122,9.929236122,0.144281099,0.146154058,32.36362983,32.82470141,12.99486524,20,20,100,92,2.329367483,3
919,9.932175262,10.07827845,14.43207403,14.32827196,0.328559297,0.289503735,9.914600701,9.914600701,0.14433714,0.146062543,32.36296416,32.82424087,12.99486524,20,20,100,92,2.329367483,3
920,9.930831544,10.07431435,14.44219897,14.31514951,0.324468927,0.288655854,9.902085818,9.902085818,0.144389886,0.145960772,32.36217058,32.82370849,12.99486524,20,20,100,92,2.329367483,3
921,9.93041923,10.07226011,14.46077834,14.28364108,0.321734314,0.289883675,9.890769082,9.890769082,0.144436544,0.145856395,32.36147352,32.82322312,12.95426377,20,19,100,92,2.329367483,3
922,9.930826564,10.07144579,14.47616912,14.24203789,0.320492316,0.292424173,9.882644434,9.882644434,0.144489366,0.145732388,32.36078748,32.82292807,12.95426377,20,19,100,92,2.329367483,3
923,9.931549122,10.07096096,14.47362602,14.21412674,0.32041819,0.294796534,9.879498686,9.879498686,0.144538804,0.145601532,32.35992131,32.82258589,12.95426377,20,19,100,92,2.329367483,3
924,9.931882366,10.07178546,14.4690748,14.21944355,0.321053077,0.296109207,9.880242899,9.880242899,0.144587482,0.14546698,32.3591522,32.82213619,12.90835141,20,19,100,92,2.329367483,3
925,9.931453216,10.07470845,14.48176116,14.247956,0.321953849,0.296737995,9.882872325,9.882872325,0.144631815,0.145333833,32.35828683,32.82166727,12.90835141,20,19,100,92,2.329367483,3
926,9.930587336,10.07803672,14.49051757,14.28853665,0.322757868,0.297694059,9.885325597,9.885325597,0.144669334,0.145199689,32.35752594,32.82122179,12.90835141,20,19,100,92,2.329367483,3
927,9.929801483,10.07945809,14.46423451,14.3508046,0.323380789,0.299477846,9.883936126,9.883936126,0.144702991,0.145067494,32.35681324,32.8207432,12.85779243,20,19,100,93,2.329367483,3
928,9.929523387,10.07854911,14.41797826,14.43311844,0.32413428,0.301648543,9.876550501,9.876550501,0.144734739,0.144936676,32.35609025,32.82022574,12.85779243,20,19,100,93,2.329367483,3
929,9.929853148,10.07693874,14.39585569,14.50666816,0.325403885,0.303403197,9.868157662,9.868157662,0.144763284,0.144805536,32.35544284,32.81976502,12.85779243,20,19,100,93,2.329367483,3
930,9.930179609,10.07654007,14.41603661,14.54517114,0.327058512,0.304357074,9.865900254,9.865900254,0.144791992,0.144678168,32.35477972,32.81932633,12.80371237,20,19,100,93,2.329367483,3
931,9.930128521,10.07720865,14.46156128,14.54867677,0.328295578,0.304759657,9.867800219,9.867800219,0.144814775,0.144564728,32.35409877,32.8188634,12.80371237,20,19,100,93,2.329367483,3
932,9.929960629,10.07699332,14.50572399,14.5240987,0.328243075,0.305207793,9.865853269,9.865853269,0.14484061,0.144453133,32.35341062,32.81834758,12.80371237,20,19,100,93,2.329367483,3
933,9.929372621,10.07462802,14.52135291,14.47637972,0.326784732,0.306287359,9.858888741,9.858888741,0.144863562,0.144359785,32.35275596,32.81793588,12.74756318,20,19,100,93,2.329367483,3
934,9.92827336,10.07153763,14.49474291,14.41860911,0.324766267,0.308188758,9.852126422,9.852126422,0.144879443,0.144271539,32.35202431,32.81744963,12.74756318,20,19,100,93,2.329367483,3
935,9.928293783,10.07164658,14.4528719,14.36552161,0.323325298,0.310258038,9.847223392,9.847223392,0.144899652,0.144193394,32.35132898,32.81689661,12.74756318,20,19,100,93,2.329367483,3
936,9.930796112,10.07762489,14.44323704,14.31231448,0.322954137,0.310980598,9.841351768,9.841351768,0.14491542,0.144116625,32.35069525,32.81631185,12.69094275,20,19,100,93,2.329367483,3
937,9.93461144,10.08649494,14.47100925,14.24297472,0.323170058,0.308855936,9.834257565,9.834257565,0.144936987,0.143883321,32.35009392,32.81574822,12.69094275,20,19,100,93,2.329367483,3
938,9.937067746,10.0916647,14.49970827,14.16904707,0.323049574,0.303593744,9.829972018,9.829972018,0.14495339,0.143605206,32.34943719,32.81514693,12.69094275,20,19,100,93,2.329367483,3
939,9.936688502,10.09043778,14.5149528,14.13742325,0.322038704,0.296478131,9.830747497,9.830747497,0.144967053,0.14339901,32.34877283,32.81456088,12.63538573,20,19,100,93,2.329367483,3
940,9.934810265,10.08668924,14.53372358,14.17488588,0.320298719,0.289558441,9.835322779,9.835322779,0.144977348,0.143249785,32.34818229,32.81392364,12.63538573,20,19,100,93,2.329367483,3
941,9.933780272,10.08479168,14.55686563,14.24197706,0.31842067,0.284408611,9.844085675,9.844085675,0.144986306,0.143240729,32.34769146,32.81320842,12.63538573,20,19,100,93,2.329367483,3
942,9.934295044,10.08433046,14.55663987,14.27307536,0.316922897,0.281508484,9.85838658,9.85838658,0.144993477,0.143269439,32.34708519,32.81250594,12.58214819,20,19,100,93,2.329367483,3
943,9.935612348,10.08309449,14.51083767,14.24827752,0.315947266,0.280394374,9.875184655,9.875184655,0.145006374,0.143306777,32.34652862,32.81187814,12.58214819,20,19,100,93,2.329367483,3
944,9.936590603,10.08165021,14.43132224,14.20527516,0.3154137,0.280327548,9.888966406,9.888966406,0.1450179,0.143351761,32.34594598,32.81119946,12.58214819,20,19,100,93,2.329367483,3
945,9.936362393,10.0818419,14.35327595,14.19175411,0.315407394,0.280845796,9.898185194,9.898185194,0.145021917,0.143398064,32.34542197,32.8104575,12.53201948,20,19,100,93,2.329367483,3
946,9.935617794,10.08396401,14.30704347,14.2171988,0.316223535,0.281841802,9.906031591,9.906031591,0.145027776,0.143451022,32.34479752,32.80974682,12.53201948,20,19,100,93,2.329367483,3
947,9.936050025,10.0875754,14.30694132,14.25180233,0.317924128,0.283265633,9.915589497,9.915589497,0.145028744,0.14350098,32.34410959,32.80902544,12.53201948,20,19,100,93,2.329367483,3
948,9.93790587,10.0919225,14.34996056,14.27004068,0.320059493,0.284848686,9.92617766,9.92617766,0.145032506,0.143557485,32.34338018,32.80827075,12.48520402,20,18,100,92,2.329367483,3
949,9.939568177,10.09531575,14.41393388,14.2842437,0.322027605,0.28612266,9.933585248,9.933585248,0.145036795,0.1436115,32.34274439,32.80753705,12.48520402,20,18,100,92,2.329367483,3
950,9.93910209,10.09682725,14.46526807,14.31592126,0.323597568,0.286647124,9.933461503,9.933461503,0.145045032,0.143670802,32.3420972,32.80679214,12.48520402,20,18,100,92,2.329367483,3
951,9.936022458,10.09724259,14.48369758,14.35081007,0.324938151,0.286206987,9.925379189,9.925379189,0.145050353,0.143731119,32.3415703,32.8061016,12.44131716,20,18,100,92,2.329367483,3
952,9.932312951,10.0969913,14.47881874,14.35601088,0.326216316,0.284922784,9.91227921,9.91227921,0.14506013,0.143794425,32.34108758,32.8053766,12.44131716,20,18,100,92,2.329367483,3
953,9.930324013,10.09524112,14.47040988,14.32347691,0.327257268,0.283333989,9.895068624,9.895068624,0.145066554,0.14385801,32.34047399,32.80455859,12.44131716,20,18,100,92,2.329367483,3
954,9.929877203,10.09150533,14.46408045,14.27564526,0.327517909,0.282297632,9.872837534,9.872837534,0.145078788,0.143920923,32.33979816,32.80377196,12.39952451,20,18,100,92,2.329367483,3
955,9.929583841,10.08664788,14.45528657,14.2398527,0.326326343,0.282544923,9.849986852,9.849986852,0.145092222,0.14397625,32.33920551,32.80291735,12.39952451,20,18,100,92,2.329367483,3
956,9.92936567,10.08204549,14.43891046,14.22317452,0.323340245,0.28417645,9.835827054,9.835827054,0.145103556,0.144031816,32.33867711,32.80203672,12.39952451,20,18,100,92,2.329367483,3
957,9.929785197,10.07872952,14.41150956,14.21693258,0.319025779,0.286713323,9.836010844,9.836010844,0.145121849,0.144085883,32.3380417,32.80121166,12.39952451,20,18,100,92,2.329367483,3
958,9.930588499,10.07698246,14.37582944,14.21983601,0.314785776,0.289651125,9.847669814,9.847669814,0.145136269,0.144138092,32.33746526,32.80042023,12.35882198,20,18,100,91,2.329367483,3
959,9.931013694,10.07608772,14.34797921,14.24180863,0.312453532,0.292800365,9.86102828,9.86102828,0.145149909,0.144191384,32.33687286,32.79965089,12.35882198,20,18,100,91,2.329367483,3
960,9.9304786,10.07564134,14.35444208,14.29042277,0.313349254,0.296058525,9.865457689,9.865457689,0.145162897,0.144244861,32.33630433,32.79878023,12.35882198,20,18,100,91,2.329367483,3
961,9.928583697,10.07632153,14.40214415,14.35400163,0.317521438,0.299084399,9.855694141,9.855694141,0.1452307,0.144295723,32.33562582,32.79793896,12.31841143,20,18,100,91,2.329367483,3
962,9.925784806,10.07762488,14.4519903,14.40395583,0.323698423,0.301395133,9.834253678,9.834253678,0.145257514,0.14434328,32.33509758,32.79712544,12.31841143,20,18,100,91,2.329367483,3
963,9.923579615,10.07787108,14.45658214,14.42677706,0.329911015,0.302740415,9.811903273,9.811903273,0.145286832,0.144392091,32.33464356,32.79619102,12.31841143,20,18,100,91,2.329367483,3
964,9.922679982,10.07775082,14.42880159,14.43686695,0.334314287,0.30327548,9.804243658,9.804243658,0.145316574,0.144433667,32.33409902,32.79525282,12.27808725,20,18,100,90,2.329367483,3
965,9.922592274,10.07919042,14.42518222,14.4508191,0.33582525,0.303385595,9.819927699,9.819927699,0.145353056,0.144466619,32.33338326,32.79440411,12.27808725,20,18,100,90,2.329367483,3
966,9.923019181,10.08112304,14.46181362,14.4699382,0.334442226,0.303368756,9.850008726,9.850008726,0.145384938,0.14450173,32.33276779,32.79349625,12.27808725,20,18,100,90,2.329367483,3
967,9.923943897,10.08085982,14.5021901,14.48135116,0.331144441,0.303203936,9.875152763,9.875152763,0.145424894,0.144530051,32.33227881,32.79259936,12.2385296,20,18,100,90,2.329367483,3
968,9.925391036,10.07843909,14.523836,14.46642149,0.327423454,0.302566916,9.884343921,9.884343921,0.145467319,0.14455699,32.3317093,32.79171387,12.2385296,20,18,100,90,2.329367483,3
969,9.92720837,10.07695925,14.54293676,14.42457629,0.324677992,0.301124873,9.882875704,9.882875704,0.145505144,0.144581407,32.33114892,32.79086203,12.2385296,20,18,100,90,2.329367483,3
970,9.928560145,10.07920209,14.57123091,14.37833926,0.323760566,0.298863251,9.885092449,9.885092449,0.145549446,0.144594834,32.33057346,32.79012732,12.20141046,20,18,100,89,2.329367483,3
971,9.928926363,10.08509317,14.59350299,14.34493384,0.324754767,0.296154789,9.899022277,9.899022277,0.145593643,0.14460586,32.32995292,32.78940396,12.20141046,20,18,100,89,2.329367483,3
972,9.92872523,10.09168136,14.58781634,14.31226173,0.32703332,0.293597252,9.917945913,9.917945913,0.145634584,0.144617903,32.32941176,32.78855111,12.20141046,20,18,100,89,2.329367483,3
973,9.928432376,10.09495348,14.54564851,14.24764572,0.329644022,0.291785685,9.931428445,9.931428445,0.145679663,0.144621542,32.32877225,32.7877115,12.16926026,20,18,100,89,2.329367483,3
974,9.928425907,10.09335394,14.49006009,14.14669777,0.33182995,0.291059599,9.938384991,9.938384991,0.145721863,0.144626294,32.32819143,32.78695619,12.16926026,20,18,100,89,2.329367483,3
975,9.928833353,10.08927716,14.46405576,14.05894469,0.333290581,0.291334624,9.94347844,9.94347844,0.145761902,0.144633755,32.32756992,32.78622538,12.1451045,20,18,100,89,2.329367483,3
976,9.92912872,10.08552944,14.47738618,14.03737081,0.334026247,0.29220412,9.945691622,9.945691622,0.145813874,0.144633254,32.32685682,32.78540286,12.1451045,20,18,100,89,2.329367483,3
977,9.928712057,10.08313532,14.50387401,14.08652965,0.334062755,0.29318542,9.934893462,9.934893462,0.145859399,0.144635808,32.32618263,32.78459413,12.1451045,20,18,100,89,2.329367483,3
978,9.927795212,10.08339673,14.52863914,14.17209682,0.333425437,0.293814441,9.904187493,9.904187493,0.145905035,0.14463378,32.32557451,32.78381736,12.13194274,20,18,100,89,2.329367483,3
979,9.927406331,10.0877683,14.54383397,14.25633591,0.332291982,0.293674097,9.863627907,9.863627907,0.145952487,0.144629799,32.32485369,32.78306306,12.13194274,20,18,100,89,2.329367483,3
980,9.927893812,10.09501449,14.52725077,14.32253415,0.330914026,0.292624201,9.830933187,9.830933187,0.145996093,0.144621013,32.32427859,32.78235244,12.13194274,20,18,100,89,2.329367483,3
981,9.928168965,10.10142192,14.47146837,14.36651239,0.329288909,0.291037835,9.813123079,9.813123079,0.146043844,0.144611255,32.3237605,32.78155266,12.13218589,20,18,100,88,2.329367483,3
982,9.927734814,10.10436529,14.41085456,14.37385794,0.327113054,0.289577406,9.807720901,9.807720901,0.146087,0.14460239,32.32316899,32.78065584,12.13218589,20,18,100,88,2.329367483,3
983,9.927806279,10.10373833,14.39122154,14.33565418,0.324330514,0.288599972,9.813305616,9.813305616,0.146121014,0.144592394,32.32258455,32.77973933,12.13218589,20,18,100,88,2.329367483,3
984,9.92944609,10.10033093,14.41790052,14.27525587,0.321600773,0.287850782,9.829751951,9.829751951,0.146164541,0.144583255,32.32201622,32.77895511,12.14717951,20,18,100,88,2.329367483,3
985,9.932582904,10.09603213,14.46031594,14.23742115,0.319907079,0.286776732,9.8536017,9.8536017,0.146205916,0.144564119,32.32146417,32.77822795,12.14717951,20,18,100,88,2.329367483,3
986,9.936533784,10.09415468,14.49472711,14.25192426,0.319681329,0.285044051,9.877836885,9.877836885,0.146253712,0.144542486,32.32088704,32.77746731,12.14717951,20,18,100,88,2.329367483,3
987,9.939865984,10.09645214,14.50956612,14.30309159,0.320518775,0.282722228,9.894302952,9.894302952,0.146296524,0.144527464,32.32032826,32.77665864,12.17691714,20,18,100,88,2.329367483,3
988,9.941060183,10.10114813,14.49101189,14.34296741,0.321732298,0.280118635,9.897411118,9.897411118,0.146345034,0.144502476,32.31968997,32.77590906,12.17691714,20,18,100,88,2.329367483,3
989,9.940169388,10.10429194,14.43220461,14.34417127,0.322945139,0.277556038,9.888964805,9.888964805,0.146390863,0.14448717,32.31904537,32.77512815,12.17691714,20,18,100,88,2.329367483,3
990,9.938942231,10.10294592,14.35875304,14.32528466,0.324081566,0.275193235,9.877899065,9.877899065,0.146430117,0.144473065,32.31841129,32.77427957,12.21999781,20,18,100,88,2.329367483,3
991,9.939085249,10.09860504,14.33001422,14.31704762,0.325033042,0.272894112,9.872645826,9.872645826,0.146475159,0.144450257,32.31774525,32.77345504,12.21999781,20,18,100,88,2.329367483,3
992,9.94028735,10.09551042,14.37937154,14.32040723,0.325616105,0.270363301,9.874638507,9.874638507,0.146513633,0.144430256,32.31703762,32.77264651,12.21999781,20,18,100,88,2.329367483,3
993,9.940631225,10.09449719,14.46011593,14.30857695,0.32586256,0.267650805,9.879171798,9.879171798,0.146550935,0.144411425,32.31633454,32.77175537,12.27382117,20,18,100,88,2.329367483,3
994,9.939709306,10.09319476,14.49889508,14.26176511,0.326109379,0.265527004,9.881358027,9.881358027,0.14659251,0.144388492,32.31570093,32.77080953,12.27382117,20,18,100,88,2.329367483,3
995,9.938955126,10.09159911,14.48119141,14.19418437,0.326598021,0.265160265,9.879803873,9.879803873,0.146616068,0.144374252,32.3150547,32.76996123,12.33496108,20,18,100,88,2.329367483,3
996,9.938584772,10.0919807,14.43573116,14.14494226,0.327016108,0.267181907,9.874307202,9.874307202,0.146645265,0.144356181,32.31432766,32.76914967,12.33496108,20,18,100,88,2.329367483,3
997,9.937515254,10.09474413,14.37406726,14.14080667,0.326642457,0.271082016,9.865314952,9.865314952,0.146671957,0.144346873,32.313655,32.7683332,12.33496108,20,18,100,88,2.329367483,3
998,9.935695351,10.09731264,14.30067951,14.17419188,0.325144829,0.275575645,9.856400652,9.856400652,0.146696449,0.144338946,32.31300785,32.76753518,12.39962593,20,18,100,88,2.329367483,3
999,9.934321178,10.09753747,14.25637155,14.22173852,0.323230482,0.279531741,9.85071007,9.85071007,0.146723683,0.144329156,32.31231614,32.766727,12.39962593,20,18,100,88,2.329367483,3
1000,9.934254338,10.09771947,14.29495935,14.27189246,0.322305395,0.282458046,9.846402808,9.846402808,0.146740577,0.144327214,32.31173852,32.76575006,12.39962593,20,18,100,88,2.329367483,3
1001,9.935108978,10.10080358,14.40131451,14.31491081,0.323241859,0.284167487,9.842359732,9.842359732,0.146756944,0.144328926,32.31109792,32.7648227,12.46410999,20,18,100,88,2.329367483,3
1002,9.936011884,10.10566056,14.50255342,14.33595458,0.325868425,0.284671151,9.844420276,9.844420276,0.146778372,0.144331401,32.31043646,32.76397444,12.46410999,20,18,100,88,2.329367483,3
