Time (s),Waist Acceleration,Chest Acceleration,Left Ankle Acceleration,right Ankle Acceleration,EMG_magnitude_left,EMG_magnitude_right,left wrist Acceleration,right wrist Acceleration,left wrist electrodermal,right wrist electrodermal,left wrist Temperature,right wrist Temperature,VO2,Breath Frequency,Minute Ventilation,SpO2,Heart Rate,Energy expenditures (W/kg) ,Activity Code
360.0078122,9.844370269,9.850358545,9.774042391,9.927260676,0.233018403,0.144707848,9.757638286,9.757638286,0.780261181,2.495682745,35.7916584,36.67512865,11.11442372,18,16,99,83,3.599805388,3
361.0078122,9.846397679,9.846334657,9.773178682,9.927804249,0.239701823,0.149152016,9.757612819,9.757612819,0.780837825,2.517142689,35.79197203,36.67456232,11.11442372,18,16,99,83,3.599805388,3
362.0078122,9.848871538,9.843770272,9.774874164,9.928811548,0.247618018,0.158804271,9.764529389,9.764529389,0.78137219,2.538584744,35.79247716,36.67393497,11.11442372,18,16,99,83,3.599805388,3
363.0078122,9.850606851,9.843792081,9.788544593,9.93642731,0.257470655,0.172431078,9.785500215,9.785500215,0.781890352,2.559986434,35.79293177,36.6730808,11.31365023,18,16,99,83,3.599805388,3
364.0078122,9.853133452,9.848297412,9.839112188,9.971625538,0.268973474,0.18845981,9.826978101,9.826978101,0.78237875,2.581478551,35.79322504,36.67210501,11.31365023,18,16,99,83,3.599805388,3
365.0078122,9.861055069,9.860195442,9.966807677,10.08239543,0.281822144,0.205872001,9.890232553,9.890232553,0.782852044,2.603050197,35.7935448,36.67095646,11.31365023,18,16,99,83,3.599805388,3
366.0078122,9.875926053,9.881633816,10.20408275,10.3278141,0.296305398,0.224561626,9.9680217,9.9680217,0.783305709,2.624734208,35.79377706,36.66967984,11.31365023,18,16,99,83,3.599805388,3
367.0078122,9.893838954,9.911744932,10.55516975,10.72771087,0.312670904,0.244734836,10.045426,10.045426,0.783757475,2.646355162,35.79398627,36.66837446,11.69623157,18,17,99,83,3.599805388,3
368.0078122,9.909116165,9.948119747,11.01541754,11.26020052,0.329843464,0.265795605,10.10707397,10.10707397,0.7841949,2.667828614,35.79411219,36.66695576,11.69623157,18,17,99,83,3.599805388,3
369.0078122,9.919739027,9.9908479,11.59984425,11.92492259,0.345166345,0.28581737,10.14546264,10.14546264,0.784617727,2.689213299,35.7943621,36.66537394,11.69623157,18,17,99,83,3.599805388,3
370.0078122,9.927582404,10.04084399,12.31303392,12.71847948,0.355951607,0.302241433,10.16155751,10.16155751,0.785033397,2.710661998,35.79446699,36.66361072,12.23234783,18,17,99,84,3.599805388,3
371.0078122,9.934064546,10.09409145,13.07436488,13.52028714,0.36156487,0.313199709,10.16199137,10.16199137,0.785432648,2.731972819,35.79472045,36.6618452,12.23234783,18,17,99,84,3.599805388,3
372.0078122,9.939392162,10.1414445,13.71302388,14.11126444,0.364096896,0.318381706,10.15759852,10.15759852,0.785849812,2.753315227,35.79502768,36.65996334,12.23234783,18,17,99,84,3.599805388,3
373.0078122,9.944301599,10.17399878,14.08227306,14.35091152,0.366995791,0.318928249,10.15689474,10.15689474,0.786275454,2.775552975,35.79505562,36.6578102,12.88179227,18,18,99,85,3.599805388,3
374.0078122,9.948791873,10.19001021,14.18215388,14.30342459,0.372822894,0.317002748,10.15920873,10.15920873,0.786695642,2.797436007,35.79511066,36.65539064,12.88179227,18,18,99,85,3.599805388,3
375.0078122,9.951195617,10.19713788,14.14902485,14.1779888,0.381549811,0.315066909,10.15838725,10.15838725,0.787141455,2.818354221,35.79513058,36.65306458,12.88179227,18,18,99,85,3.599805388,3
376.0078122,9.950215318,10.20326346,14.11265341,14.1484271,0.390585606,0.314859474,10.1492508,10.1492508,0.787593169,2.83857842,35.79516841,36.65045258,13.59864579,18,19,99,85,3.599805388,3
377.0078122,9.946848142,10.20787384,14.09987544,14.24744906,0.396649107,0.316544441,10.1305839,10.1305839,0.787879619,2.857654992,35.79525345,36.64788624,13.59864579,18,19,99,85,3.599805388,3
378.0078122,9.944414252,10.207386,14.08641042,14.41178066,0.398024696,0.318868265,10.10692008,10.10692008,0.788134773,2.876082051,35.79535455,36.64522738,13.59864579,18,19,99,85,3.599805388,3
379.0078122,9.945876485,10.20207869,14.07382454,14.55499696,0.395252401,0.320364391,10.08343622,10.08343622,0.788410941,2.894307902,35.79546441,36.64244586,14.33638601,18,19,99,86,3.599805388,3
380.0078122,9.949827889,10.19364432,14.09398766,14.59773261,0.389977625,0.320622248,10.0610711,10.0610711,0.788752651,2.911682619,35.7953847,36.63946794,14.33638601,18,19,99,86,3.599805388,3
381.0078122,9.951205064,10.1827792,14.16779796,14.51214823,0.383545942,0.320546547,10.0410773,10.0410773,0.789185728,2.928069116,35.79539426,36.636267,14.33638601,18,19,99,86,3.599805388,3
382.0078122,9.947020947,10.17149434,14.25973667,14.36404218,0.376743549,0.321320463,10.02678663,10.02678663,0.789646275,2.944102521,35.79534669,36.6331123,15.05270747,18,20,99,87,3.599805388,3
383.0078122,9.939575756,10.16457164,14.29516467,14.27192665,0.370476625,0.322919152,10.01774103,10.01774103,0.790126623,2.959925371,35.79541064,36.62985563,15.05270747,18,20,99,87,3.599805388,3
384.0078122,9.933940546,10.16642894,14.24579642,14.29904042,0.36615345,0.323694065,10.00795861,10.00795861,0.790609449,2.975301785,35.79562717,36.62647591,15.05270747,18,20,99,87,3.599805388,3
385.0078122,9.933503955,10.17534337,14.16247447,14.39072999,0.365005918,0.321715219,9.993217885,9.993217885,0.791110367,2.990055332,35.79573374,36.62300985,15.71340151,18,21,99,88,3.599805388,3
386.0078122,9.937709725,10.18368669,14.10901422,14.44970465,0.367004219,0.316591433,9.978043881,9.978043881,0.791630305,3.004110906,35.79577318,36.61931485,15.71340151,18,21,99,88,3.599805388,3
387.0078122,9.942925039,10.18569381,14.08902346,14.44441023,0.370462123,0.309810311,9.970794839,9.970794839,0.792149233,3.017473825,35.79572515,36.61561022,15.71340151,18,21,99,88,3.599805388,3
388.0078122,9.945891848,10.18204112,14.05516088,14.3959818,0.372844281,0.303316442,9.971343722,9.971343722,0.792674655,3.029964702,35.79568254,36.61184623,15.71340151,18,21,99,88,3.599805388,3
389.0078122,9.946358591,10.17703952,13.98907873,14.3306484,0.372120583,0.298065335,9.970826585,9.970826585,0.793215742,3.041332631,35.79572772,36.60803558,16.29482031,19,21,99,89,3.599805388,3
390.0078122,9.945853681,10.17500432,13.93592298,14.28345059,0.367789994,0.293945656,9.965633114,9.965633114,0.793769977,3.05200773,35.79568247,36.60401786,16.29482031,19,21,99,89,3.599805388,3
391.0078122,9.945547638,10.17766641,13.93866231,14.2749925,0.361062113,0.290598102,9.960439227,9.960439227,0.794335558,3.061990591,35.79570085,36.59992609,16.29482031,19,21,99,89,3.599805388,3
392.0078122,9.945707068,10.18154854,13.98546227,14.28728159,0.35409931,0.287897439,9.956054749,9.956054749,0.794897957,3.071160562,35.79565892,36.59576631,16.7847005,19,22,99,90,3.599805388,3
393.0078122,9.946008375,10.18090877,14.04439375,14.2988392,0.348740357,0.285791579,9.948959025,9.948959025,0.795454406,3.079530455,35.79575469,36.59154486,16.7847005,19,22,99,90,3.599805388,3
394.0078122,9.946169704,10.17480491,14.10466036,14.30599065,0.345669778,0.284110939,9.942816278,9.942816278,0.796009678,3.087073579,35.79572472,36.58722336,16.7847005,19,22,99,90,3.599805388,3
395.0078122,9.945870781,10.16790009,14.17064213,14.30813405,0.344663045,0.282737009,9.949175065,9.949175065,0.796570503,3.093793444,35.79554986,36.58272745,17.1814029,19,23,99,90,3.599805388,3
396.0078122,9.944532632,10.16576293,14.23788707,14.30287531,0.345283101,0.281826565,9.974186452,9.974186452,0.797137891,3.09969551,35.79541531,36.57824179,17.1814029,19,23,99,90,3.599805388,3
397.0078122,9.942260721,10.17143681,14.28682746,14.29418252,0.346910734,0.281661362,10.00732553,10.00732553,0.797709547,3.104937861,35.79514328,36.57358381,17.1814029,19,23,99,90,3.599805388,3
398.0078122,9.940062128,10.18364646,14.30998251,14.30002163,0.348187855,0.28219691,10.02936678,10.02936678,0.798339616,3.110681221,35.7952142,36.56900321,17.49188195,19,23,99,91,3.599805388,3
399.0078122,9.938150716,10.19607236,14.32228298,14.33845483,0.347122347,0.282871221,10.03111657,10.03111657,0.798952547,3.116430158,35.79520597,36.56431382,17.49188195,19,23,99,91,3.599805388,3
400.0078122,9.935839362,10.20061674,14.32823449,14.40257787,0.342470287,0.283071022,10.01626795,10.01626795,0.799536942,3.121218304,35.79496263,36.55958568,17.49188195,19,23,99,91,3.599805388,3
401.0078122,9.934273423,10.1950432,14.31510207,14.45868282,0.335101683,0.282837277,9.992319842,9.992319842,0.800103454,3.125047766,35.79476523,36.55488649,17.49188195,19,23,99,91,3.599805388,3
402.0078122,9.935613264,10.18483594,14.27587997,14.4569863,0.327728576,0.282860734,9.967640748,9.967640748,0.800596752,3.12684595,35.79448957,36.5499941,17.72888143,19,24,99,91,3.599805388,3
403.0078122,9.938921465,10.17493831,14.21014354,14.36349257,0.323124926,0.283545839,9.949370907,9.949370907,0.801021054,3.12606093,35.79427235,36.54507234,17.72888143,19,24,99,91,3.599805388,3
404.0078122,9.941900687,10.16605323,14.12756464,14.213762,0.322494215,0.284199343,9.94012171,9.94012171,0.801441547,3.124576913,35.7940789,36.5401048,17.72888143,19,24,99,91,3.599805388,3
405.0078122,9.94454084,10.1607388,14.06360939,14.09357239,0.325157922,0.283467895,9.940851404,9.940851404,0.801880017,3.123502098,35.79387789,36.53509562,17.90792407,19,24,99,92,3.599805388,3
406.0078122,9.947402135,10.16400713,14.05497427,14.04303129,0.329350814,0.280699826,9.953074021,9.953074021,0.802295594,3.122638469,35.79347228,36.5299765,17.90792407,19,24,99,92,3.599805388,3
407.0078122,9.950267135,10.17515098,14.08583472,14.039461,0.333297646,0.276773019,9.975141334,9.975141334,0.802698344,3.121767153,35.79308812,36.5248921,17.90792407,19,24,99,92,3.599805388,3
408.0078122,9.952670866,10.18568859,14.08989396,14.06242085,0.335918779,0.273563934,10.0011443,10.0011443,0.803077955,3.120800455,35.7925275,36.51967548,18.04461316,19,24,99,92,3.599805388,3
409.0078122,9.953513187,10.18813231,14.02345319,14.1003264,0.33686869,0.272698049,10.02293076,10.02293076,0.803439002,3.119657733,35.79193874,36.51445788,18.04461316,19,24,99,92,3.599805388,3
410.0078122,9.95203788,10.18414791,13.91803969,14.13533639,0.336118392,0.274711321,10.03240662,10.03240662,0.803763546,3.118285448,35.79137236,36.50918321,18.04461316,19,24,99,92,3.599805388,3
411.0078122,9.949186383,10.18160937,13.84512666,14.17204556,0.333704128,0.279009092,10.02964622,10.02964622,0.804056604,3.116048222,35.79068073,36.50387276,18.15261646,19,25,99,92,3.599805388,3
412.0078122,9.946764756,10.1850504,13.84456309,14.23230132,0.32992896,0.28424392,10.02823025,10.02823025,0.804323877,3.113390343,35.79004066,36.49866138,18.15261646,19,25,99,92,3.599805388,3
413.0078122,9.946147371,10.19269404,13.90856018,14.31281309,0.325605432,0.288633289,10.04078771,10.04078771,0.804573259,3.110864182,35.78927444,36.49330503,18.15261646,19,25,99,92,3.599805388,3
414.0078122,9.947810091,10.19952453,14.01332925,14.37970382,0.321726495,0.290430446,10.05859612,10.05859612,0.80478258,3.108364631,35.78860442,36.487871,18.24250198,19,25,99,92,3.599805388,3
415.0078122,9.950992782,10.1993212,14.13264263,14.40580261,0.318750154,0.288712586,10.05640603,10.05640603,0.804943123,3.105779548,35.78799586,36.48248517,18.24250198,19,25,99,92,3.599805388,3
416.0078122,9.953802624,10.18898928,14.23609632,14.39583837,0.316185792,0.284083848,10.01937113,10.01937113,0.805047952,3.102925451,35.7872203,36.47707574,18.24250198,19,25,99,92,3.599805388,3
417.0078122,9.953867841,10.17397758,14.30284993,14.38413764,0.312934306,0.278441575,9.96013546,9.96013546,0.805127183,3.09987047,35.78632264,36.47154249,18.3213985,19,25,99,92,3.599805388,3
418.0078122,9.949776641,10.16441045,14.3256863,14.41859965,0.308173374,0.273731927,9.90954537,9.90954537,0.805163446,3.096781795,35.78548128,36.4660776,18.3213985,19,25,99,92,3.599805388,3
419.0078122,9.943404736,10.16451664,14.30215277,14.51048884,0.302117538,0.270774286,9.889869124,9.889869124,0.80513464,3.093233079,35.78452013,36.46044951,18.3213985,19,25,99,92,3.599805388,3
420.0078122,9.938661378,10.16993126,14.24929388,14.60052025,0.296038803,0.269185834,9.897159966,9.897159966,0.805041079,3.088904043,35.78361814,36.45491111,18.39330759,20,25,99,92,3.599805388,3
421.0078122,9.936809592,10.17403475,14.20914801,14.62181784,0.291498437,0.268223771,9.912043777,9.912043777,0.804914407,3.084195416,35.78276702,36.4492071,18.39330759,20,25,99,92,3.599805388,3
422.0078122,9.936298124,10.17413512,14.21079117,14.58436912,0.289376958,0.2675021,9.922169015,9.922169015,0.804760773,3.079778194,35.78170869,36.44340848,18.39330759,20,25,99,92,3.599805388,3
423.0078122,9.936136434,10.17289894,14.24147899,14.54817026,0.289433028,0.266933477,9.928424615,9.928424615,0.804558933,3.075660966,35.78061086,36.43781014,18.45982051,20,25,99,91,3.599805388,3
424.0078122,9.936319675,10.17397169,14.26400498,14.53192,0.290671002,0.266271808,9.93303974,9.93303974,0.804318306,3.071493696,35.77950727,36.43209243,18.45982051,20,25,99,91,3.599805388,3
425.0078122,9.936939621,10.17710863,14.25391499,14.50694239,0.29214305,0.265054105,9.930711377,9.930711377,0.804021447,3.067213716,35.77828599,36.42635688,18.45982051,20,25,99,91,3.599805388,3
426.0078122,9.938295677,10.17973161,14.22489014,14.46411439,0.293418175,0.263127705,9.916976161,9.916976161,0.803669088,3.062727928,35.77712634,36.42057925,18.52099044,20,25,99,91,3.599805388,3
427.0078122,9.940050197,10.18103995,14.22170069,14.43150342,0.294366405,0.261081672,9.898900559,9.898900559,0.803274987,3.058136133,35.77593668,36.41465978,18.52099044,20,25,99,91,3.599805388,3
428.0078122,9.940807267,10.18300065,14.28233826,14.44535307,0.294725183,0.259950631,9.89176144,9.89176144,0.802887547,3.054340975,35.77469715,36.40861262,18.52099044,20,25,99,91,3.599805388,3
429.0078122,9.939917414,10.18913213,14.39411558,14.52000467,0.294212966,0.260388441,9.908244177,9.908244177,0.802479683,3.051615641,35.77327494,36.40251213,18.57615682,20,25,99,91,3.599805388,3
430.0078122,9.938611753,10.20062164,14.48565818,14.61556968,0.293090646,0.262101226,9.947380307,9.947380307,0.802046967,3.048494034,35.77193512,36.39636426,18.57615682,20,25,99,91,3.599805388,3
431.0078122,9.938785506,10.212069,14.49090888,14.65285094,0.292325557,0.264054155,9.990771649,9.990771649,0.801538604,3.044910835,35.77053128,36.39014006,18.57615682,20,25,99,91,3.599805388,3
432.0078122,9.940945931,10.2143902,14.41337642,14.58636623,0.293048451,0.265222726,10.01700524,10.01700524,0.80098654,3.041005685,35.76904407,36.38377792,18.62458636,20,25,99,91,3.599805388,3
433.0078122,9.943979027,10.20377621,14.3061287,14.45298739,0.295928655,0.265224863,10.02105864,10.02105864,0.800377157,3.035975658,35.76764458,36.37748685,18.62458636,20,25,99,91,3.599805388,3
434.0078122,9.947166653,10.18636309,14.22519094,14.34159266,0.301064904,0.264422683,10.01217552,10.01217552,0.799734283,3.030654763,35.76635383,36.37121867,18.66586686,20,25,99,91,3.599805388,3
435.0078122,9.949875644,10.17219518,14.19766941,14.31231959,0.308297064,0.263626848,9.997950896,9.997950896,0.799062109,3.025804023,35.7648824,36.36477622,18.66586686,20,25,99,91,3.599805388,3
436.0078122,9.950241214,10.16492952,14.19195474,14.35329981,0.317461694,0.263738624,9.982281688,9.982281688,0.798362332,3.021185689,35.76341289,36.3583522,18.66586686,20,25,99,91,3.599805388,3
437.0078122,9.948204989,10.16210017,14.14957372,14.41670053,0.328177989,0.265486291,9.970795547,9.970795547,0.797642839,3.016622465,35.76189327,36.35180723,18.70005329,20,25,99,90,3.599805388,3
438.0078122,9.94680183,10.16259355,14.06471485,14.4649959,0.339268638,0.269218348,9.968025253,9.968025253,0.796912799,3.01211726,35.76041054,36.3452111,18.70005329,20,25,99,90,3.599805388,3
439.0078122,9.947440625,10.16503508,13.97844986,14.48038376,0.348407196,0.274594635,9.97118613,9.97118613,0.796164736,3.007673738,35.75890951,36.33854773,18.70005329,20,25,99,90,3.599805388,3
440.0078122,9.947369726,10.165504,13.9115684,14.47062934,0.353019667,0.280298764,9.969208345,9.969208345,0.795396316,3.003178716,35.75708681,36.3318749,18.72761806,20,25,99,90,3.599805388,3
441.0078122,9.944075714,10.16457287,13.87125602,14.46177347,0.351821493,0.284261777,9.956348354,9.956348354,0.794629173,2.9986639,35.75534426,36.32507063,18.72761806,20,25,99,90,3.599805388,3
442.0078122,9.940502475,10.16825932,13.89369134,14.45331681,0.345597353,0.284736608,9.942323157,9.942323157,0.793858015,2.994144726,35.75377974,36.31820554,18.72761806,20,25,99,90,3.599805388,3
443.0078122,9.941884866,10.17824927,14.00928091,14.40591805,0.336615309,0.281501194,9.937603255,9.937603255,0.793094223,2.989675199,35.75217203,36.3112644,18.74929311,20,25,99,90,3.599805388,3
444.0078122,9.947077706,10.18774902,14.16445235,14.30332602,0.327433207,0.275931506,9.938470013,9.938470013,0.792329318,2.985220852,35.75036197,36.30424474,18.74929311,20,25,99,90,3.599805388,3
445.0078122,9.949465667,10.18899944,14.24168884,14.18857071,0.319894521,0.269818165,9.933209588,9.933209588,0.791570923,2.980779878,35.74851686,36.29712558,18.74929311,20,25,99,90,3.599805388,3
446.0078122,9.946840547,10.18127003,14.18941909,14.1147876,0.31456076,0.264244268,9.919946453,9.919946453,0.790807589,2.976346579,35.74669118,36.28983348,18.765903,20,25,99,90,3.599805388,3
447.0078122,9.943268514,10.17007756,14.07613134,14.09856522,0.310808035,0.259563139,9.911257494,9.911257494,0.790052698,2.971916482,35.7449066,36.28261522,18.765903,20,25,99,90,3.599805388,3
448.0078122,9.942156785,10.16177182,13.9936402,14.12899356,0.307657169,0.256019538,9.915304665,9.915304665,0.789297849,2.967490813,35.74307824,36.27523577,18.765903,20,25,99,90,3.599805388,3
449.0078122,9.943208133,10.1597567,13.96634303,14.18286207,0.304668762,0.254002148,9.926927696,9.926927696,0.788542402,2.963157153,35.74121189,36.26760525,18.77826788,19,25,99,90,3.599805388,3
450.0078122,9.944951392,10.16305534,13.97470311,14.22934468,0.302081394,0.253768126,9.93917575,9.93917575,0.787786995,2.958855575,35.73944537,36.26008673,18.77826788,19,25,99,90,3.599805388,3
451.0078122,9.946797539,10.1680425,14.01045261,14.25386212,0.300317676,0.255222245,9.946013702,9.946013702,0.787055698,2.954551139,35.73751527,36.25250004,18.77826788,19,25,99,90,3.599805388,3
452.0078122,9.949128656,10.17162347,14.06943436,14.27621089,0.299742414,0.258009165,9.940478502,9.940478502,0.78633253,2.950531107,35.73569477,36.24485374,18.78720619,19,25,99,89,3.599805388,3
453.0078122,9.951820041,10.1715889,14.12290452,14.31517857,0.300876278,0.26158499,9.925005778,9.925005778,0.785635067,2.946913634,35.73369336,36.23712295,18.78720619,19,25,99,89,3.599805388,3
454.0078122,9.953271844,10.16742316,14.13981502,14.35391422,0.304454831,0.265103699,9.914525653,9.914525653,0.784956074,2.943184961,35.73165893,36.22923906,18.78720619,19,25,99,89,3.599805388,3
455.0078122,9.952850984,10.16359107,14.12671981,14.37758454,0.310773828,0.267505396,9.919936482,9.919936482,0.784272114,2.939314987,35.72966186,36.22147309,18.79360422,19,25,99,89,3.599805388,3
456.0078122,9.951979209,10.16442501,14.11083275,14.39756316,0.318726691,0.268085135,9.937252826,9.937252826,0.783591648,2.935344714,35.72758417,36.21354086,18.79360422,19,25,99,89,3.599805388,3
457.0078122,9.951222858,10.16554799,14.10195347,14.41510243,0.32557381,0.26708262,9.955944584,9.955944584,0.782935831,2.931200298,35.72553987,36.20544936,18.79360422,19,25,99,89,3.599805388,3
458.0078122,9.949779256,10.16103802,14.09966074,14.4357632,0.328100579,0.265661217,9.967571373,9.967571373,0.782222958,2.926061511,35.72329861,36.19716755,18.79847249,19,25,99,89,3.599805388,3
459.0078122,9.947059679,10.15481552,14.10101191,14.49419043,0.324601242,0.265266891,9.965704801,9.965704801,0.781509826,2.920066334,35.72101917,36.18891405,18.79847249,19,25,99,89,3.599805388,3
460.0078122,9.942892418,10.15499437,14.0908684,14.58999798,0.316140738,0.266767514,9.949199742,9.949199742,0.780842425,2.914680957,35.71890034,36.18060345,18.79847249,19,25,99,89,3.599805388,3
461.0078122,9.938636217,10.16182327,14.07110079,14.66414639,0.306028916,0.269743292,9.926206009,9.926206009,0.780184264,2.90986634,35.71675673,36.1722448,18.80290168,19,25,99,89,3.599805388,3
462.0078122,9.936918297,10.16870409,14.084107,14.67227828,0.298063758,0.272424702,9.906375238,9.906375238,0.779535912,2.905276369,35.71465264,36.16390856,18.80290168,19,25,99,89,3.599805388,3
463.0078122,9.938952215,10.1720583,14.15839627,14.61245212,0.294928062,0.272681174,9.891049824,9.891049824,0.778898086,2.900744954,35.71238508,36.1554366,18.80290168,19,25,99,89,3.599805388,3
464.0078122,9.943945501,10.17254787,14.25531604,14.49990394,0.297358822,0.269513202,9.876275886,9.876275886,0.778269994,2.896259462,35.71006027,36.14685052,18.80787524,18,24,99,89,3.599805388,3
465.0078122,9.949292926,10.17030026,14.31520512,14.38047589,0.303954119,0.263754197,9.861589716,9.861589716,0.777644952,2.891772695,35.70774319,36.13826177,18.80787524,18,24,99,89,3.599805388,3
466.0078122,9.951182395,10.16678044,14.3303529,14.32226881,0.311695474,0.257418411,9.851529685,9.851529685,0.777023674,2.887285141,35.7054062,36.12961937,18.80787524,18,24,99,89,3.599805388,3
467.0078122,9.948125469,10.164894,14.32840114,14.34996098,0.317589436,0.252443106,9.851610334,9.851610334,0.776415535,2.882761432,35.70305232,36.12081993,18.80787524,18,24,99,89,3.599805388,3
468.0078122,9.942997403,10.16430008,14.31766484,14.43227812,0.320586546,0.249878912,9.865777024,9.865777024,0.775820599,2.878161209,35.70082945,36.11210771,18.81397438,18,24,99,89,3.599805388,3
469.0078122,9.939750265,10.16355877,14.29651841,14.51714336,0.321934787,0.249802164,9.894506347,9.894506347,0.775225031,2.873598422,35.6985023,36.10334108,18.81397438,18,24,99,89,3.599805388,3
470.0078122,9.939557931,10.16283726,14.28385237,14.55097537,0.323350353,0.251587189,9.93159305,9.93159305,0.774649851,2.869325661,35.69607757,36.09452449,18.81397438,18,24,99,89,3.599805388,3
471.0078122,9.941255943,10.16115204,14.30349186,14.52090655,0.324911968,0.254205348,9.96304717,9.96304717,0.774089228,2.865044605,35.69368215,36.08556025,18.81397438,18,24,99,89,3.599805388,3
472.0078122,9.943122193,10.15767794,14.35893009,14.47992022,0.325050907,0.256520696,9.974388623,9.974388623,0.773522456,2.860606574,35.69120465,36.07654675,18.8210888,18,24,99,88,3.599805388,3
473.0078122,9.943407024,10.15491254,14.41991392,14.47672406,0.322456762,0.257631,9.965963551,9.965963551,0.772970023,2.856041744,35.68868956,36.06748424,18.8210888,18,24,99,88,3.599805388,3
474.0078122,9.942278997,10.15566354,14.42945338,14.48198675,0.317384447,0.257177477,9.95597233,9.95597233,0.772415077,2.851352417,35.68608832,36.05837685,18.8210888,18,24,99,88,3.599805388,3
475.0078122,9.942173359,10.15946801,14.35380974,14.44045569,0.310940976,0.255522671,9.959678313,9.959678313,0.771878346,2.846561888,35.68329976,36.04928912,18.82828078,18,24,99,88,3.599805388,3
476.0078122,9.943984149,10.16279259,14.22747716,14.35666497,0.303835969,0.25377103,9.972619699,9.972619699,0.771313438,2.841692544,35.68065773,36.04020788,18.82828078,18,24,99,88,3.599805388,3
477.0078122,9.945589845,10.16270245,14.10891538,14.28581193,0.296528108,0.253591951,9.978686346,9.978686346,0.77076601,2.836791188,35.67794695,36.03097716,18.82828078,18,24,99,88,3.599805388,3
478.0078122,9.945560848,10.16039274,14.02639634,14.26650029,0.29025431,0.256742918,9.968102465,9.968102465,0.770217447,2.831850508,35.67526215,36.02179537,18.82828078,18,24,99,88,3.599805388,3
479.0078122,9.944679809,10.15892915,13.99031632,14.29373855,0.287204593,0.264226465,9.948617621,9.948617621,0.769681787,2.8268178,35.67251285,36.01263352,18.83391628,18,24,99,88,3.599805388,3
480.0078122,9.944052382,10.15808447,14.00421084,14.33064103,0.289205401,0.27530733,9.939773548,9.939773548,0.769133404,2.821757526,35.66981641,36.00341796,18.83391628,18,24,99,88,3.599805388,3
481.0078122,9.944812528,10.15390847,14.05031957,14.31814965,0.296271804,0.287160754,9.949798979,9.949798979,0.768596155,2.816626967,35.66708937,35.99428328,18.83391628,18,24,99,88,3.599805388,3
482.0078122,9.948305175,10.14381488,14.10526332,14.21091764,0.306282877,0.295899256,9.9632601,9.9632601,0.768055186,2.811365333,35.66428262,35.98506506,18.83608106,18,24,99,88,3.599805388,3
483.0078122,9.954388628,10.13331229,14.17041859,14.04509909,0.316014465,0.298634904,9.96288003,9.96288003,0.767515973,2.805933512,35.66146185,35.97572095,18.83608106,18,24,99,88,3.599805388,3
484.0078122,9.960774963,10.13500863,14.25936457,13.93911847,0.322748599,0.295063139,9.954951521,9.954951521,0.766968215,2.800460822,35.65871281,35.96636141,18.83608106,18,24,99,88,3.599805388,3
485.0078122,9.965109665,10.15534546,14.35436433,13.96844635,0.325344548,0.287369662,9.95467103,9.95467103,0.766438158,2.794953471,35.6558994,35.9570815,18.83317857,18,24,99,88,3.599805388,3
486.0078122,9.966764556,10.18441533,14.39926542,14.0716208,0.324272361,0.278734425,9.957762401,9.957762401,0.76590462,2.789422562,35.65294351,35.94779806,18.83317857,18,24,99,88,3.599805388,3
487.0078122,9.966685815,10.20488435,14.35101568,14.15189065,0.321104331,0.271632095,9.950543875,9.950543875,0.765364144,2.783811087,35.65002592,35.93848833,18.83317857,18,24,99,88,3.599805388,3
488.0078122,9.966288906,10.20924375,14.22958033,14.20148832,0.318082764,0.266887777,9.936394609,9.936394609,0.764788028,2.77761171,35.64706296,35.92916905,18.82451331,18,24,99,88,3.599805388,3
489.0078122,9.966026806,10.20289406,14.11216162,14.24964875,0.31757588,0.263779954,9.931994989,9.931994989,0.764189598,2.770218097,35.64408901,35.91997754,18.82451331,18,24,99,88,3.599805388,3
490.0078122,9.965188032,10.19256762,14.06422533,14.27687737,0.320960015,0.260949322,9.945489587,9.945489587,0.763605542,2.763025418,35.64109885,35.91076177,18.82451331,18,24,99,88,3.599805388,3
491.0078122,9.96333079,10.17936595,14.06945676,14.2508375,0.327398493,0.257447015,9.96988454,9.96988454,0.763061449,2.756340893,35.63804115,35.90148156,18.81064247,18,24,99,88,3.599805388,3
492.0078122,9.960655442,10.16491306,14.06288557,14.19277296,0.333668668,0.253230565,9.992557545,9.992557545,0.76251686,2.749910041,35.63494743,35.8923142,18.81064247,18,24,99,88,3.599805388,3
493.0078122,9.957427596,10.15595798,14.02496136,14.16218287,0.335752737,0.248846149,10.00191855,10.00191855,0.761977691,2.743610849,35.63171252,35.88305914,18.81064247,18,24,99,88,3.599805388,3
494.0078122,9.954348757,10.15720394,13.98868871,14.19418978,0.331312808,0.244849467,9.988811491,9.988811491,0.761437088,2.737371128,35.62835029,35.87384446,18.81064247,18,24,99,88,3.599805388,3
495.0078122,9.952256105,10.16518358,13.96981246,14.27165801,0.321227959,0.241553914,9.954412588,9.954412588,0.760911918,2.731154027,35.62507368,35.86453319,18.79334487,18,24,99,88,3.599805388,3
496.0078122,9.950785915,10.17220841,13.94997791,14.35398914,0.308894075,0.239140145,9.914890777,9.914890777,0.760389774,2.724925602,35.62186876,35.85516336,18.79334487,18,24,99,88,3.599805388,3
497.0078122,9.949023074,10.17313223,13.92839309,14.41511324,0.297853875,0.237758322,9.886953038,9.886953038,0.759866151,2.718663943,35.61852661,35.845891,18.79334487,18,24,99,88,3.599805388,3
498.0078122,9.947383364,10.16848126,13.93308243,14.44612909,0.28979823,0.237435144,9.873015893,9.873015893,0.759338983,2.712334605,35.61515051,35.83660885,18.77518834,18,25,99,88,3.599805388,3
499.0078122,9.946342478,10.16293546,13.97097513,14.44388085,0.284414964,0.237935987,9.866798174,9.866798174,0.758816638,2.705924088,35.61166125,35.82729688,18.77518834,18,25,99,88,3.599805388,3
500.0078122,9.944294167,10.16067252,14.01354096,14.41750024,0.280651241,0.238812233,9.866383888,9.866383888,0.758285885,2.699502558,35.60843701,35.81814015,18.77518834,18,25,99,88,3.599805388,3
501.0078122,9.940441211,10.16151043,14.027046,14.39846866,0.277909456,0.239681256,9.874143324,9.874143324,0.757766423,2.693045365,35.60502185,35.80900009,18.77518834,18,25,99,88,3.599805388,3
502.0078122,9.937682548,10.16310135,13.99662209,14.41808113,0.276309397,0.240509139,9.886464679,9.886464679,0.757233646,2.686516209,35.60139163,35.79980428,18.75882182,18,25,99,88,3.599805388,3
503.0078122,9.938543532,10.16519598,13.94466936,14.46426001,0.276260541,0.241582852,9.894549589,9.894549589,0.75670586,2.679871999,35.5977834,35.7905804,18.75882182,18,25,99,88,3.599805388,3
504.0078122,9.940993093,10.16678981,13.92057065,14.48808389,0.278002113,0.243178972,9.897129663,9.897129663,0.756171912,2.673208642,35.59421077,35.7813172,18.75882182,18,25,99,88,3.599805388,3
505.0078122,9.941651722,10.16390457,13.94684037,14.46754797,0.281429827,0.245277518,9.90186446,9.90186446,0.755653722,2.666509979,35.59057805,35.77205586,18.75882182,18,25,99,88,3.599805388,3
506.0078122,9.940494193,10.15625813,13.9923183,14.43166475,0.286103703,0.247628054,9.91462942,9.91462942,0.755128315,2.659793854,35.58694408,35.76292658,18.74622013,18,25,99,87,3.599805388,3
507.0078122,9.93996078,10.15006917,14.01436596,14.41290004,0.291280171,0.250048908,9.934935214,9.934935214,0.75461704,2.653037727,35.58322889,35.75356321,18.74622013,18,25,99,87,3.599805388,3
508.0078122,9.941439004,10.15036878,14.01038547,14.41785413,0.296066338,0.252652956,9.955504218,9.955504218,0.754118089,2.646222231,35.57943853,35.74430043,18.74622013,18,25,99,87,3.599805388,3
509.0078122,9.94374362,10.15690103,14.01638521,14.44390237,0.299918155,0.25578694,9.961679809,9.961679809,0.753613007,2.639285432,35.57577644,35.73518428,18.74622013,18,25,99,87,3.599805388,3
510.0078122,9.9439564,10.16747388,14.05581263,14.48071457,0.303218515,0.259672527,9.94318598,9.94318598,0.753110827,2.632281239,35.5718593,35.72591607,18.73812548,18,25,99,87,3.599805388,3
511.0078122,9.940563182,10.17802903,14.10287437,14.49406434,0.307075239,0.263964349,9.910225181,9.910225181,0.752598294,2.625241963,35.56810634,35.71660899,18.73812548,18,25,99,87,3.599805388,3
512.0078122,9.936191481,10.18257893,14.11430357,14.43617198,0.312022512,0.267635004,9.885118313,9.885118313,0.752081388,2.618043057,35.56429713,35.70719698,18.73812548,18,25,99,87,3.599805388,3
513.0078122,9.934733936,10.17870364,14.08212949,14.28841609,0.316831367,0.269447078,9.877036959,9.877036959,0.75155476,2.610424649,35.56049961,35.69769934,18.73385575,18,25,99,87,3.599805388,3
514.0078122,9.936335423,10.17076488,14.04485102,14.10611449,0.318997394,0.268714153,9.87405857,9.87405857,0.751019343,2.602936649,35.55666659,35.68831194,18.73385575,18,25,99,87,3.599805388,3
515.0078122,9.938208948,10.16531855,14.05601418,13.99897358,0.316730184,0.265712285,9.861021592,9.861021592,0.750499725,2.595669502,35.55279389,35.67887919,18.73385575,18,25,99,87,3.599805388,3
516.0078122,9.938830291,10.16369084,14.12930414,14.03091713,0.310559717,0.261450868,9.840735942,9.840735942,0.749979795,2.588571126,35.54886181,35.66932378,18.73151604,18,25,99,87,3.599805388,3
517.0078122,9.938933809,10.16187959,14.22308697,14.15955904,0.303098271,0.257057588,9.831056319,9.831056319,0.749453283,2.581569741,35.54490004,35.65975657,18.73151604,18,25,99,87,3.599805388,3
518.0078122,9.939465516,10.15819339,14.29761876,14.29268686,0.29746519,0.253310923,9.841681831,9.841681831,0.748943892,2.574642502,35.54098726,35.65039768,18.73151604,18,25,99,87,3.599805388,3
519.0078122,9.939833675,10.15477325,14.34356894,14.37432684,0.295594981,0.250462998,9.865153974,9.865153974,0.748441415,2.567744695,35.5369678,35.64089615,18.72851221,18,25,99,87,3.599805388,3
520.0078122,9.93881291,10.15192993,14.33787779,14.40967671,0.297445707,0.248370904,9.891213688,9.891213688,0.747926493,2.56085635,35.53291801,35.63132335,18.72851221,18,25,99,87,3.599805388,3
521.0078122,9.937481596,10.14894164,14.2521254,14.43339735,0.301189168,0.246766595,9.915912697,9.915912697,0.747418842,2.553888554,35.5287906,35.62161133,18.72851221,18,25,99,87,3.599805388,3
522.0078122,9.938873464,10.14855756,14.1180263,14.46016999,0.304134706,0.245515695,9.933394583,9.933394583,0.746918195,2.546994098,35.52463043,35.61186441,18.72217564,18,25,99,86,3.599805388,3
523.0078122,9.943534575,10.15366113,14.00734307,14.47249654,0.304112364,0.244666362,9.933555035,9.933555035,0.746413017,2.540244353,35.5204729,35.60215282,18.72217564,18,25,99,86,3.599805388,3
524.0078122,9.948749009,10.16090616,13.95221316,14.45885139,0.300794616,0.244216961,9.917438209,9.917438209,0.745905573,2.533597868,35.51623002,35.59242439,18.72217564,18,25,99,86,3.599805388,3
525.0078122,9.952156269,10.16271604,13.93642369,14.42570087,0.296004688,0.243912933,9.903302132,9.903302132,0.74540212,2.527011887,35.51211175,35.5826367,18.71029931,19,26,99,86,3.599805388,3
526.0078122,9.953068967,10.1560657,13.9430324,14.37950693,0.292428118,0.243465304,9.904549407,9.904549407,0.744909403,2.520473488,35.50793535,35.57291604,18.71029931,19,26,99,86,3.599805388,3
527.0078122,9.951819933,10.14643709,13.97382958,14.33877215,0.291613124,0.243008585,9.911256006,9.911256006,0.74441524,2.513979939,35.50379751,35.56313052,18.71029931,19,26,99,86,3.599805388,3
528.0078122,9.949201016,10.14200298,14.03046096,14.33060218,0.293073895,0.24312902,9.905772187,9.905772187,0.743909943,2.507554172,35.49960974,35.55334608,18.69145104,19,26,99,86,3.599805388,3
529.0078122,9.945500939,10.14549959,14.0954508,14.35133695,0.295220762,0.24426503,9.887930438,9.887930438,0.743412813,2.501108241,35.49551864,35.54340833,18.69145104,19,26,99,86,3.599805388,3
530.0078122,9.941398537,10.15230816,14.13959883,14.37543028,0.296940415,0.246179083,9.873782524,9.873782524,0.742909368,2.494400898,35.4912421,35.53349806,18.69145104,19,26,99,86,3.599805388,3
531.0078122,9.93951385,10.15604597,14.14642105,14.39829754,0.298253804,0.248199987,9.87444576,9.87444576,0.742386947,2.487677041,35.48689273,35.52364162,18.66503621,19,26,99,86,3.599805388,3
532.0078122,9.942263806,10.15501052,14.12540234,14.42288909,0.299727344,0.249861335,9.884743282,9.884743282,0.741879316,2.481166346,35.48269494,35.51370636,18.66503621,19,26,99,86,3.599805388,3
533.0078122,9.948388306,10.15217307,14.10119401,14.41992872,0.301581311,0.25106464,9.892581796,9.892581796,0.741363076,2.47480963,35.47837468,35.50382984,18.66503621,19,26,99,86,3.599805388,3
534.0078122,9.953971528,10.15140066,14.08709607,14.36006853,0.303368794,0.251602984,9.896026976,9.896026976,0.740854338,2.468550422,35.47408865,35.49387976,18.63118016,19,26,99,86,3.599805388,3
535.0078122,9.956406893,10.1559997,14.07691544,14.28075009,0.304332929,0.250932097,9.90606672,9.90606672,0.74034514,2.462368394,35.46977856,35.48398271,18.63118016,19,26,99,86,3.599805388,3
536.0078122,9.95590991,10.16780403,14.06568828,14.24969344,0.303919589,0.248741268,9.928931409,9.928931409,0.739846591,2.456267381,35.46540354,35.47393076,18.63118016,19,26,99,86,3.599805388,3
537.0078122,9.954284686,10.18288391,14.05459098,14.27079944,0.302006871,0.245619468,9.95314625,9.95314625,0.739350817,2.450197752,35.46097016,35.46411428,18.63118016,19,26,99,86,3.599805388,3
538.0078122,9.952691344,10.19054075,14.03665696,14.29163919,0.298887637,0.242828829,9.962982155,9.962982155,0.738833339,2.444150187,35.45648331,35.45413453,18.59054929,19,26,99,86,3.599805388,3
539.0078122,9.950866285,10.18375382,14.00596085,14.2884477,0.295182326,0.241384181,9.958484368,9.958484368,0.738322868,2.438164024,35.45203822,35.44426947,18.59054929,19,26,99,86,3.599805388,3
540.0078122,9.949190268,10.16889461,13.97581262,14.29211896,0.291620638,0.241499307,9.954270313,9.954270313,0.737823984,2.432204469,35.44740976,35.43438409,18.59054929,19,26,99,86,3.599805388,3
541.0078122,9.949289499,10.15837004,13.96046723,14.32593764,0.288707419,0.242779146,9.964049148,9.964049148,0.737321975,2.426259175,35.44278133,35.42454268,18.54421565,19,26,99,85,3.599805388,3
542.0078122,9.95100696,10.15627313,13.94527803,14.36124442,0.286605453,0.244548064,9.990961163,9.990961163,0.736834454,2.420355548,35.43826916,35.41476298,18.54421565,19,26,99,85,3.599805388,3
543.0078122,9.951933207,10.15735812,13.90841051,14.35645797,0.285335078,0.245902523,10.029233,10.029233,0.736338297,2.41448449,35.43369121,35.40492153,18.54421565,19,26,99,85,3.599805388,3
544.0078122,9.951549768,10.15710789,13.8717482,14.30784393,0.28488891,0.245882065,10.06845337,10.06845337,0.735843955,2.408670611,35.4291226,35.39519023,18.49360683,19,26,99,85,3.599805388,3
545.0078122,9.951832433,10.15611288,13.89064206,14.24625918,0.285059592,0.24405978,10.09255283,10.09255283,0.735336496,2.402862155,35.42440149,35.38553317,18.49360683,19,26,99,85,3.599805388,3
546.0078122,9.952781664,10.15641601,13.98081739,14.20746944,0.285267687,0.241072006,10.08807628,10.08807628,0.734834804,2.397086702,35.4198041,35.37580259,18.49360683,19,26,99,85,3.599805388,3
547.0078122,9.95203947,10.15905372,14.08950939,14.21418027,0.284728874,0.238355465,10.06425412,10.06425412,0.7343469,2.391339853,35.41499006,35.36596989,18.44050817,19,26,99,85,3.599805388,3
548.0078122,9.94927946,10.16406706,14.15572671,14.266536,0.282895643,0.237239142,10.04524662,10.04524662,0.7338511,2.385627178,35.41009231,35.35629729,18.44050817,19,26,99,85,3.599805388,3
549.0078122,9.946772961,10.16998362,14.16732529,14.33953377,0.279895519,0.238203872,10.03765997,10.03765997,0.733346721,2.379920856,35.40531387,35.34665385,18.44050817,19,26,99,85,3.599805388,3
550.0078122,9.946065492,10.17449116,14.14788983,14.40279583,0.276612956,0.240816217,10.02719072,10.02719072,0.732850274,2.374229784,35.40050259,35.33702705,18.38703692,19,26,99,85,3.599805388,3
551.0078122,9.946731883,10.17576539,14.1245801,14.44359759,0.274173468,0.244170289,10.00173181,10.00173181,0.732346597,2.368544495,35.39558079,35.32743568,18.38703692,19,26,99,85,3.599805388,3
552.0078122,9.947553143,10.17227629,14.11651301,14.45716716,0.27307989,0.247404259,9.962051922,9.962051922,0.731861847,2.362878898,35.39070899,35.31780655,18.38703692,19,26,99,85,3.599805388,3
553.0078122,9.947935507,10.16457455,14.12706662,14.43873366,0.27277698,0.24995992,9.919062991,9.919062991,0.73138228,2.357242222,35.38585033,35.30829498,18.33550998,19,26,99,85,3.599805388,3
554.0078122,9.948127412,10.15806946,14.1393857,14.40369988,0.272214066,0.251487204,9.887813912,9.887813912,0.730900582,2.351607124,35.38090471,35.2986867,18.33550998,19,26,99,85,3.599805388,3
555.0078122,9.94793164,10.15917586,14.13315465,14.37413076,0.270945525,0.251622247,9.878651791,9.878651791,0.730407689,2.345998097,35.37597132,35.28915803,18.33550998,19,26,99,85,3.599805388,3
556.0078122,9.94678828,10.16798032,14.10759622,14.34102903,0.269613184,0.25004412,9.891200959,9.891200959,0.729925308,2.340401378,35.37081626,35.27975348,18.33550998,19,26,99,85,3.599805388,3
557.0078122,9.945613422,10.17935657,14.0764034,14.28784893,0.269344473,0.246866835,9.913790278,9.913790278,0.729447455,2.33482414,35.36564949,35.27032941,18.28817748,19,25,99,85,3.599805388,3
558.0078122,9.945948089,10.19044076,14.05126481,14.23160764,0.270889714,0.24290902,9.933037356,9.933037356,0.728980004,2.3292635,35.36056782,35.26092539,18.28817748,19,25,99,85,3.599805388,3
559.0078122,9.947568942,10.20149722,14.04004019,14.19457063,0.274346012,0.239358893,9.949410536,9.949410536,0.728521208,2.323735385,35.35539246,35.25161016,18.28817748,19,25,99,85,3.599805388,3
560.0078122,9.949194241,10.21085105,14.04560813,14.17328321,0.279323989,0.237113039,9.972748867,9.972748867,0.72805397,2.318228918,35.35026838,35.24216246,18.24686679,19,25,99,85,3.599805388,3
561.0078122,9.950227156,10.21422198,14.05792178,14.16900648,0.284931745,0.236442802,10.00208248,10.00208248,0.727599616,2.312759774,35.34510458,35.23278541,18.24686679,19,25,99,85,3.599805388,3
562.0078122,9.95111611,10.20977175,14.05470946,14.20249165,0.289685865,0.237187008,10.02571657,10.02571657,0.727154062,2.307376018,35.34008322,35.22334969,18.24686679,19,25,99,85,3.599805388,3
563.0078122,9.952270788,10.20162335,14.02491952,14.27885722,0.291955066,0.23905453,10.03496327,10.03496327,0.726714076,2.302051024,35.33483888,35.21384331,18.21264199,19,25,99,85,3.599805388,3
564.0078122,9.952312705,10.19618173,13.98664873,14.37216856,0.290900098,0.241629312,10.0239232,10.0239232,0.72627452,2.296689749,35.3295991,35.20450317,18.21264199,19,25,99,85,3.599805388,3
565.0078122,9.949563003,10.19496593,13.9676343,14.45050837,0.287101974,0.244169755,9.988361732,9.988361732,0.725835889,2.291366487,35.32436204,35.19514878,18.21264199,19,25,99,85,3.599805388,3
566.0078122,9.945820092,10.1931899,13.98108908,14.49605917,0.282289721,0.245659653,9.936109967,9.936109967,0.725398711,2.286063647,35.31923569,35.18574313,18.18560178,19,25,99,85,3.599805388,3
567.0078122,9.944944981,10.18508407,14.02224229,14.50121875,0.27838756,0.245352364,9.888182855,9.888182855,0.724964082,2.280801737,35.31388613,35.1763579,18.18560178,19,25,99,85,3.599805388,3
568.0078122,9.947515369,10.16984123,14.07327828,14.46109142,0.276538175,0.243409498,9.862067525,9.862067525,0.724527217,2.275577813,35.30856309,35.16694045,18.18560178,19,25,99,85,3.599805388,3
569.0078122,9.950581165,10.15350044,14.11468099,14.38675766,0.276629109,0.240937067,9.858604474,9.858604474,0.724103352,2.270393252,35.30316503,35.15741578,18.16490591,19,25,99,85,3.599805388,3
570.0078122,9.951576137,10.14438783,14.13999561,14.32523435,0.277537371,0.239238851,9.864991331,9.864991331,0.723680098,2.26521396,35.29762438,35.14801955,18.16490591,19,25,99,85,3.599805388,3
571.0078122,9.950228845,10.14577309,14.15624044,14.32494055,0.277952815,0.238980609,9.866688214,9.866688214,0.723265872,2.260104458,35.2921561,35.13849552,18.16490591,19,25,99,85,3.599805388,3
572.0078122,9.948303266,10.1530828,14.16232293,14.36454624,0.277241774,0.239989871,9.860159386,9.860159386,0.722864801,2.255048426,35.28658722,35.12902052,18.14904781,19,25,99,85,3.599805388,3
573.0078122,9.948124502,10.15914762,14.14452087,14.37521933,0.27567227,0.241779858,9.855041604,9.855041604,0.722473463,2.250046745,35.28109959,35.11956813,18.14904781,19,25,99,85,3.599805388,3
574.0078122,9.950442988,10.16271694,14.11427846,14.34435914,0.273922605,0.24408945,9.859819597,9.859819597,0.722081999,2.245098817,35.27558147,35.11006427,18.14904781,19,25,99,85,3.599805388,3
575.0078122,9.953466364,10.1688173,14.12310652,14.32669169,0.272524504,0.246862985,9.870437185,9.870437185,0.72170381,2.240192399,35.27006959,35.10049059,18.14904781,19,25,99,85,3.599805388,3
576.0078122,9.954425537,10.18010784,14.20612585,14.35547773,0.271711221,0.249835529,9.878421665,9.878421665,0.721326396,2.235326725,35.26456107,35.09103418,18.13630666,19,25,99,85,3.599805388,3
577.0078122,9.952343201,10.19143482,14.32949029,14.39934346,0.271461989,0.252297296,9.882127043,9.882127043,0.720963661,2.23049974,35.25906794,35.08160061,18.13630666,19,25,99,85,3.599805388,3
578.0078122,9.949311599,10.19512906,14.42474226,14.40142565,0.271508471,0.25332149,9.885664387,9.885664387,0.720594858,2.225716549,35.2535125,35.07192543,18.12524708,19,25,99,84,3.599805388,3
579.0078122,9.948700672,10.19107368,14.46074908,14.33906819,0.271470522,0.25229779,9.893799465,9.893799465,0.720232959,2.220982666,35.24793324,35.06229814,18.12524708,19,25,99,84,3.599805388,3
580.0078122,9.951569026,10.18637075,14.45117844,14.25206589,0.271175517,0.249422253,9.906849885,9.906849885,0.719886678,2.216291126,35.24233557,35.05267522,18.12524708,19,25,99,84,3.599805388,3
581.0078122,9.955608341,10.18471141,14.41763885,14.21513683,0.270826271,0.245777463,9.916994513,9.916994513,0.719555529,2.211648702,35.23680867,35.04320074,18.11511093,19,25,99,84,3.599805388,3
582.0078122,9.957245836,10.18428372,14.38142407,14.27532539,0.270797535,0.242826452,9.918942373,9.918942373,0.719214722,2.207037504,35.23121981,35.0336025,18.11511093,19,25,99,84,3.599805388,3
583.0078122,9.954490528,10.18378893,14.35151542,14.40278252,0.271272789,0.241568242,9.922935951,9.922935951,0.718885079,2.202451263,35.22557793,35.02404959,18.11511093,19,25,99,84,3.599805388,3
584.0078122,9.949120508,10.18201973,14.30582567,14.5137047,0.27204193,0.241927437,9.941598666,9.941598666,0.718565331,2.197885542,35.21999644,35.01452335,18.10597181,19,25,99,85,3.599805388,3
585.0078122,9.945118641,10.17710647,14.23312304,14.56091039,0.272565063,0.242882713,9.971103821,9.971103821,0.718253606,2.193368491,35.21434173,35.00500658,18.10597181,19,25,99,85,3.599805388,3
586.0078122,9.944588689,10.17023575,14.17379368,14.57166247,0.2723018,0.243294893,9.997025081,9.997025081,0.717928565,2.188911106,35.20863104,34.99559618,18.10597181,19,25,99,85,3.599805388,3
587.0078122,9.947039192,10.16414843,14.1788199,14.58536754,0.271194927,0.242804089,10.00653148,10.00653148,0.717624832,2.184477007,35.20282003,34.98616705,18.10597181,19,25,99,85,3.599805388,3
588.0078122,9.950979185,10.16000839,14.24920853,14.59959973,0.269960305,0.241975776,9.993992153,9.993992153,0.717322589,2.180101081,35.19705814,34.97654573,18.09859076,19,25,99,85,3.599805388,3
589.0078122,9.954256431,10.15946165,14.33046904,14.58654619,0.269779719,0.241583284,9.96535369,9.96535369,0.717013115,2.175755379,35.19112985,34.96709842,18.09859076,19,25,99,85,3.599805388,3
590.0078122,9.954984136,10.16375847,14.36495109,14.52301131,0.271505141,0.241794212,9.933732965,9.933732965,0.716715695,2.171443796,35.18548238,34.95760544,18.09859076,19,25,99,85,3.599805388,3
591.0078122,9.953374377,10.16916976,14.336746,14.41206945,0.275053357,0.24206477,9.911067781,9.911067781,0.71641556,2.167158379,35.17971492,34.94819511,18.09400253,19,25,99,85,3.599805388,3
592.0078122,9.951642517,10.16856308,14.25473002,14.29578595,0.279520044,0.241714722,9.90430114,9.90430114,0.716121467,2.162912046,35.17380434,34.93873811,18.09400253,19,25,99,85,3.599805388,3
593.0078122,9.951803889,10.15815193,14.12596382,14.22011272,0.283848744,0.240489151,9.911703984,9.911703984,0.715853858,2.158678688,35.16802301,34.92929886,18.09400253,19,25,99,85,3.599805388,3
594.0078122,9.954013776,10.14279773,13.97598025,14.20892244,0.287437674,0.238633469,9.924380024,9.924380024,0.715580956,2.154498125,35.16224473,34.91994547,18.09294924,19,25,99,85,3.599805388,3
595.0078122,9.957294266,10.13414679,13.86204912,14.28044131,0.290196276,0.236635032,9.934222119,9.934222119,0.715309854,2.150320965,35.15637468,34.91062612,18.09294924,19,25,99,85,3.599805388,3
596.0078122,9.960487191,10.13913266,13.82709906,14.4127646,0.292113856,0.234957524,9.937572883,9.937572883,0.715049806,2.146182796,35.1505216,34.90145398,18.09294924,19,25,99,85,3.599805388,3
597.0078122,9.962145398,10.15189887,13.85469053,14.51252196,0.292949771,0.233841493,9.933548492,9.933548492,0.714795457,2.142089149,35.14469257,34.8921216,18.09294924,19,25,99,85,3.599805388,3
598.0078122,9.961126623,10.161005,13.89426418,14.50551559,0.292485855,0.233224762,9.923486682,9.923486682,0.714546487,2.138041697,35.13875027,34.8830517,18.09533703,19,25,99,85,3.599805388,3
599.0078122,9.957614649,10.16177758,13.91474059,14.42472703,0.291022096,0.232889268,9.91119058,9.91119058,0.714295302,2.13400939,35.13279533,34.87399682,18.09533703,19,25,99,85,3.599805388,3
600.0078122,9.953454561,10.15928617,13.91619637,14.35681047,0.289343648,0.232827655,9.9002591,9.9002591,0.714042661,2.130002505,35.12694039,34.86483164,18.09533703,19,25,99,85,3.599805388,3
601.0078122,9.950678331,10.16130406,13.91240125,14.34277608,0.288198838,0.233439512,9.891082786,9.891082786,0.713804377,2.126012082,35.1211055,34.85580574,18.09990003,19,25,99,85,3.599805388,3
602.0078122,9.94924383,10.16939977,13.91185328,14.35621771,0.288008007,0.235253137,9.881904707,9.881904707,0.713565495,2.122046289,35.11507031,34.84687545,18.09990003,19,25,99,85,3.599805388,3
603.0078122,9.947924179,10.175902,13.90229513,14.35466091,0.288976567,0.238420502,9.873689948,9.873689948,0.713337229,2.118122144,35.10917496,34.83806366,18.09990003,19,25,99,85,3.599805388,3
604.0078122,9.947578802,10.17142601,13.86729946,14.33350908,0.291048591,0.242563173,9.87345653,9.87345653,0.713104266,2.114224577,35.1031334,34.82929486,18.1042066,19,25,99,85,3.599805388,3
605.0078122,9.950958445,10.15769393,13.82171018,14.31540152,0.29357522,0.247138844,9.885637015,9.885637015,0.712874281,2.110367621,35.09727635,34.82041222,18.1042066,19,25,99,85,3.599805388,3
606.0078122,9.958138893,10.14761086,13.80357192,14.29939123,0.295382538,0.251817648,9.899394056,9.899394056,0.712641721,2.106525218,35.09140025,34.81161935,18.1042066,19,25,99,85,3.599805388,3
607.0078122,9.964532969,10.15024578,13.83496089,14.26682416,0.295599084,0.256315979,9.898542099,9.898542099,0.712411616,2.102716443,35.0855667,34.80293838,18.1042066,19,25,99,85,3.599805388,3
608.0078122,9.965509208,10.16414409,13.91125137,14.23299765,0.294491263,0.259891699,9.884710355,9.884710355,0.71219025,2.098938864,35.0798655,34.79439722,18.10504483,19,25,99,85,3.599805388,3
609.0078122,9.961696397,10.18409262,14.01668132,14.23866299,0.293285555,0.26130948,9.875979215,9.875979215,0.711972425,2.095196338,35.07401225,34.7858033,18.10504483,19,25,99,85,3.599805388,3
610.0078122,9.957764844,10.20339372,14.13598758,14.28940467,0.292957685,0.259598591,9.882952627,9.882952627,0.711748675,2.091478191,35.06817197,34.77719902,18.10504483,19,25,99,85,3.599805388,3
611.0078122,9.956337537,10.21346317,14.25053755,14.33985932,0.29307676,0.254838097,9.897834122,9.897834122,0.711534562,2.087791145,35.0623292,34.76873441,18.09910421,19,25,99,85,3.599805388,3
612.0078122,9.955377369,10.2113535,14.33260239,14.34435713,0.291858812,0.248128928,9.908589752,9.908589752,0.711322255,2.084145032,35.05646155,34.76024801,18.09910421,19,25,99,85,3.599805388,3
613.0078122,9.952679777,10.20292826,14.35811968,14.30302295,0.287668715,0.240883878,9.915104396,9.915104396,0.711098184,2.080524718,35.05075177,34.7518562,18.09910421,19,25,99,85,3.599805388,3
614.0078122,9.949904297,10.19384493,14.3148537,14.25335746,0.280686952,0.234282046,9.924532466,9.924532466,0.710893366,2.076938025,35.04505894,34.74339418,18.08377047,19,25,99,85,3.599805388,3
615.0078122,9.949857071,10.18543568,14.21243803,14.23615088,0.2730167,0.22920476,9.93826845,9.93826845,0.71067987,2.073378061,35.03924717,34.73512061,18.08377047,19,25,99,85,3.599805388,3
616.0078122,9.95266558,10.17896191,14.10013426,14.26246057,0.267099473,0.226297381,9.952501146,9.952501146,0.710470428,2.069858552,35.03355933,34.7267882,18.08377047,19,25,99,85,3.599805388,3
617.0078122,9.955779908,10.1752998,14.03369529,14.30772185,0.264117229,0.225871507,9.96376135,9.96376135,0.71026734,2.066363015,35.0277715,34.71852564,18.05780639,19,25,99,85,3.599805388,3
618.0078122,9.956313134,10.17352197,14.02272347,14.34767175,0.263729718,0.227765356,9.971395006,9.971395006,0.710058463,2.062906323,35.02211016,34.71029416,18.05780639,19,25,99,85,3.599805388,3
619.0078122,9.954282996,10.17246369,14.03396987,14.38115689,0.264844234,0.23135209,9.982628899,9.982628899,0.709836564,2.059463502,35.01640427,34.70210207,18.02172329,19,25,99,85,3.599805388,3
620.0078122,9.953314044,10.17152743,14.03253605,14.41546276,0.266418007,0.235671386,10.00782137,10.00782137,0.709627483,2.056037833,35.0105985,34.69404135,18.02172329,19,25,99,85,3.599805388,3
621.0078122,9.956009095,10.17153832,14.00942736,14.44095926,0.267814247,0.23959482,10.04236584,10.04236584,0.709410039,2.052646991,35.00490646,34.68600449,18.02172329,19,25,99,85,3.599805388,3
622.0078122,9.959855234,10.17416386,13.98137401,14.42187698,0.268801678,0.242094923,10.06520926,10.06520926,0.709199396,2.049239325,34.99909865,34.67811608,17.97774514,19,25,99,85,3.599805388,3
623.0078122,9.960692513,10.17929263,13.97787609,14.3391226,0.269414241,0.242649143,10.06458452,10.06458452,0.708985637,2.045848221,34.99345706,34.67034514,17.97774514,19,25,99,85,3.599805388,3
624.0078122,9.958028687,10.18529078,14.01470563,14.23494168,0.269800352,0.241427563,10.05404986,10.05404986,0.708759784,2.042536718,34.98794396,34.66258586,17.97774514,19,25,99,85,3.599805388,3
625.0078122,9.954217402,10.1918263,14.07172403,14.17133324,0.270164112,0.239047611,10.05234033,10.05234033,0.708540789,2.039347688,34.98241384,34.6547746,17.97774514,19,25,99,85,3.599805388,3
626.0078122,9.951144706,10.19877235,14.10930312,14.15997943,0.270780677,0.236147434,10.05895532,10.05895532,0.708342042,2.03619498,34.97679832,34.64695539,17.92939175,18,25,99,85,3.599805388,3
627.0078122,9.949388597,10.20350302,14.10019693,14.16687431,0.271973281,0.233285159,10.06176914,10.06176914,0.708139641,2.033098163,34.97129261,34.63939724,17.92939175,18,25,99,85,3.599805388,3
628.0078122,9.94898485,10.20316205,14.04687408,14.16824429,0.273940475,0.231114606,10.05761365,10.05761365,0.707933797,2.030040332,34.96593747,34.63180737,17.92939175,18,25,99,85,3.599805388,3
629.0078122,9.950451017,10.19741654,13.97957949,14.17211026,0.276543148,0.230354587,10.05665233,10.05665233,0.707737476,2.027018792,34.96044654,34.62423696,17.92939175,18,25,99,85,3.599805388,3
630.0078122,9.954286821,10.18782037,13.92582226,14.1902761,0.279317435,0.231367345,10.06965606,10.06965606,0.707528706,2.024046606,34.95512761,34.61662132,17.88081227,18,25,99,85,3.599805388,3
631.0078122,9.959402279,10.17794195,13.88384257,14.21737666,0.28174897,0.233764436,10.09110472,10.09110472,0.707318368,2.021101946,34.94974724,34.60912875,17.88081227,18,25,99,85,3.599805388,3
632.0078122,9.964337845,10.17257408,13.84149797,14.23916489,0.283464935,0.236538112,10.10079905,10.10079905,0.707126023,2.018231868,34.94437499,34.60176477,17.88081227,18,25,99,85,3.599805388,3
633.0078122,9.969053895,10.17232854,13.81179868,14.24415942,0.28410161,0.23865609,10.0874978,10.0874978,0.706891778,2.015352492,34.93897157,34.5945462,17.83604884,18,25,99,85,3.599805388,3
634.0078122,9.973735663,10.17171262,13.82680115,14.23196813,0.283173184,0.239611209,10.06199866,10.06199866,0.706669472,2.012513705,34.93346131,34.58727557,17.83604884,18,25,99,85,3.599805388,3
635.0078122,9.977874858,10.16704833,13.88645975,14.20884652,0.280405782,0.239603253,10.03973032,10.03973032,0.70645995,2.009701371,34.92808835,34.58002787,17.83604884,18,25,99,85,3.599805388,3
636.0078122,9.980753675,10.16301135,13.94335745,14.16789655,0.276291847,0.239423273,10.02136527,10.02136527,0.706252357,2.006934476,34.92264838,34.57281226,17.83604884,18,25,99,85,3.599805388,3
637.0078122,9.980772639,10.16585179,13.96527794,14.10209852,0.272170405,0.240187532,10.00082239,10.00082239,0.706053747,2.004190649,34.91714845,34.56572773,17.79839554,18,25,99,84,3.599805388,3
638.0078122,9.976284762,10.17492556,13.98268506,14.0469319,0.269538883,0.24289926,9.978786313,9.978786313,0.705838761,2.001491153,34.91186047,34.55871966,17.79839554,18,25,99,84,3.599805388,3
639.0078122,9.968343685,10.18511633,14.0399731,14.06749273,0.269245321,0.247795439,9.95769756,9.95769756,0.705633733,1.998832632,34.90643477,34.55181485,17.76996003,18,25,99,84,3.599805388,3
640.0078122,9.960185067,10.19065098,14.1226289,14.17999356,0.271220946,0.253767874,9.937486286,9.937486286,0.705430639,1.996194302,34.90102563,34.54484923,17.76996003,18,25,99,84,3.599805388,3
641.0078122,9.954900136,10.18745663,14.17530387,14.30813532,0.274777169,0.258562587,9.921682567,9.921682567,0.705217613,1.993583321,34.89566685,34.53787464,17.76996003,18,25,99,84,3.599805388,3
642.0078122,9.954124172,10.17756834,14.17098082,14.34151095,0.279039895,0.260088862,9.913653135,9.913653135,0.705015615,1.991009602,34.89022562,34.5312016,17.75147025,18,25,99,84,3.599805388,3
643.0078122,9.956521118,10.16679766,14.1240099,14.24672451,0.283191453,0.257894857,9.90940852,9.90940852,0.704823689,1.988459149,34.88490796,34.52442622,17.75147025,18,25,99,84,3.599805388,3
644.0078122,9.958889448,10.15906742,14.06430886,14.11238956,0.286473494,0.253342352,9.905009041,9.905009041,0.704624,1.985908424,34.87954029,34.51787113,17.75147025,18,25,99,84,3.599805388,3
645.0078122,9.959537629,10.15678913,14.01899406,14.05607961,0.288131392,0.248337737,9.89983222,9.89983222,0.704418989,1.983399656,34.87402299,34.51126462,17.75147025,18,25,99,84,3.599805388,3
646.0078122,9.95839423,10.1604022,13.99822275,14.09999372,0.287562365,0.244002774,9.89172822,9.89172822,0.704214934,1.980908893,34.86865111,34.50469299,17.74232246,18,25,99,84,3.599805388,3
647.0078122,9.955702236,10.16662762,13.99276233,14.17909995,0.284661361,0.240423845,9.881990194,9.881990194,0.704011215,1.978441983,34.86316396,34.49820761,17.74232246,18,25,99,84,3.599805388,3
648.0078122,9.952489114,10.17108242,13.99106066,14.23467303,0.279994366,0.237265346,9.877391703,9.877391703,0.703826485,1.976018227,34.85766132,34.49192299,17.74232246,18,25,99,84,3.599805388,3
649.0078122,9.950400575,10.17154179,13.99615812,14.25386212,0.274587615,0.23438221,9.882522052,9.882522052,0.703620072,1.973607695,34.8523068,34.48566627,17.74232246,18,25,99,84,3.599805388,3
650.0078122,9.950388657,10.16925359,14.01222369,14.24667619,0.269543541,0.231924563,9.896529885,9.896529885,0.703420829,1.971213026,34.84686104,34.4795395,17.74084664,18,25,99,84,3.599805388,3
651.0078122,9.952272605,10.16838737,14.02453093,14.22043884,0.265833287,0.23008372,9.912308218,9.912308218,0.703228911,1.968833287,34.8413939,34.47337526,17.74084664,18,25,99,84,3.599805388,3
652.0078122,9.955092543,10.17208318,14.01981938,14.18394619,0.264094437,0.228810518,9.917945236,9.917945236,0.703031331,1.966462073,34.83595778,34.46741396,17.74084664,18,25,99,84,3.599805388,3
653.0078122,9.957519417,10.17850842,14.01771593,14.16667855,0.264414469,0.227841029,9.907504028,9.907504028,0.702829621,1.964114331,34.83044323,34.4614906,17.74475424,19,25,99,84,3.599805388,3
654.0078122,9.958293176,10.18321355,14.05424664,14.20766035,0.266213665,0.226951112,9.888713221,9.888713221,0.702629271,1.96178124,34.82490796,34.45563108,17.74475424,19,25,99,84,3.599805388,3
655.0078122,9.956733219,10.18503215,14.13289718,14.31691473,0.268488329,0.226149237,9.875004992,9.875004992,0.702433724,1.959443306,34.8194344,34.44974327,17.74475424,19,25,99,84,3.599805388,3
656.0078122,9.953317761,10.18715182,14.21400979,14.46029937,0.270419709,0.225655578,9.875476765,9.875476765,0.702234908,1.957114823,34.81381777,34.44389662,17.7517123,19,25,99,84,3.599805388,3
657.0078122,9.94931215,10.19232888,14.25420266,14.57568211,0.271926184,0.225749203,9.894022524,9.894022524,0.702041121,1.954795536,34.80845456,34.43818039,17.7517123,19,25,99,84,3.599805388,3
658.0078122,9.946112716,10.19867057,14.23484382,14.60867266,0.273599523,0.226575311,9.928331665,9.928331665,0.701860861,1.952478009,34.8030542,34.43250671,17.7517123,19,25,99,84,3.599805388,3
659.0078122,9.944897969,10.20049948,14.16732257,14.55627893,0.275953384,0.227987264,9.968037264,9.968037264,0.70168236,1.950184957,34.79764835,34.42688175,17.75994907,19,25,99,84,3.599805388,3
660.0078122,9.945599773,10.19378704,14.09533053,14.45950676,0.278670782,0.229587508,9.999736964,9.999736964,0.701494527,1.947924575,34.79213546,34.42135008,17.75994907,19,25,99,84,3.599805388,3
661.0078122,9.947534821,10.18172503,14.0635031,14.35278456,0.280683537,0.231011437,10.01632784,10.01632784,0.701308663,1.945662284,34.78653428,34.41576541,17.75994907,19,25,99,84,3.599805388,3
662.0078122,9.951110904,10.1731911,14.06400741,14.25189556,0.281099647,0.232172649,10.02231873,10.02231873,0.70111715,1.943397027,34.78113487,34.41034113,17.76875425,19,25,99,84,3.599805388,3
663.0078122,9.956497379,10.17301008,14.04497395,14.17054864,0.280065371,0.233208425,10.02455085,10.02455085,0.700941391,1.941128384,34.77570252,34.4049043,17.76875425,19,25,99,84,3.599805388,3
664.0078122,9.962312255,10.17703529,13.99368025,14.12277818,0.278708392,0.234243858,10.02322746,10.02322746,0.700766573,1.938861908,34.77030742,34.39958496,17.76875425,19,25,99,84,3.599805388,3
665.0078122,9.966581649,10.17865673,13.96213604,14.12054695,0.278257519,0.235280078,10.02366355,10.02366355,0.70059638,1.936593559,34.76490452,34.39430404,17.77872066,19,25,99,84,3.599805388,3
666.0078122,9.967163973,10.17523488,13.97749347,14.17266262,0.279176998,0.2361929,10.03318129,10.03318129,0.700415967,1.934339244,34.75947241,34.38900735,17.77872066,19,25,99,84,3.599805388,3
667.0078122,9.962783753,10.16904989,14.00480165,14.27523284,0.281037758,0.236732947,10.03422789,10.03422789,0.700240933,1.932082806,34.75417235,34.38395981,17.77872066,19,25,99,84,3.599805388,3
668.0078122,9.955188827,10.16619359,14.02444493,14.39430874,0.283016903,0.23661968,9.998510626,9.998510626,0.700064244,1.929837658,34.74869029,34.37867465,17.79161059,19,25,99,84,3.599805388,3
669.0078122,9.948642296,10.17147786,14.06302088,14.46905463,0.284341215,0.235802847,9.930452156,9.930452156,0.699891335,1.927606926,34.74336684,34.37346221,17.79161059,19,25,99,84,3.599805388,3
670.0078122,9.946035479,10.18170324,14.13077029,14.46120155,0.284384021,0.234630452,9.86126382,9.86126382,0.69970866,1.92539038,34.73797738,34.36843129,17.79161059,19,25,99,84,3.599805388,3
671.0078122,9.946459319,10.18948654,14.19416193,14.39955788,0.282790195,0.233663725,9.813969872,9.813969872,0.699531433,1.92317113,34.73256284,34.36332321,17.80982272,19,25,99,84,3.599805388,3
672.0078122,9.946696373,10.19329174,14.22538045,14.34021351,0.279758754,0.233305525,9.796295007,9.796295007,0.699342939,1.920968136,34.72732805,34.35839352,17.80982272,19,25,99,84,3.599805388,3
673.0078122,9.945099343,10.19460239,14.22670202,14.29986719,0.275989346,0.233589741,9.806824839,9.806824839,0.699162617,1.918755975,34.72199368,34.35335028,17.80982272,19,25,99,84,3.599805388,3
674.0078122,9.94417015,10.19090433,14.20098502,14.26257716,0.272139411,0.234231685,9.836318607,9.836318607,0.698980296,1.916567657,34.71666235,34.34843018,17.83556101,19,25,99,83,3.599805388,3
675.0078122,9.946873526,10.18147818,14.14761852,14.21919033,0.268447926,0.234808923,9.871124985,9.871124985,0.698819107,1.914377887,34.7115078,34.34341892,17.83556101,19,25,99,83,3.599805388,3
676.0078122,9.951508468,10.17191809,14.08650741,14.16578424,0.264954081,0.234923161,9.897735787,9.897735787,0.698644785,1.912204739,34.70627255,34.33843462,17.83556101,19,25,99,83,3.599805388,3
677.0078122,9.953813666,10.16601864,14.04163747,14.11783634,0.261909535,0.234274117,9.908813772,9.908813772,0.698463801,1.910031877,34.70121343,34.33337055,17.86992005,19,25,99,83,3.599805388,3
678.0078122,9.952271345,10.16152107,14.01106787,14.11405728,0.259711202,0.232733996,9.908577951,9.908577951,0.698292327,1.907863331,34.69595603,34.32826692,17.86992005,19,25,99,83,3.599805388,3
679.0078122,9.9489592,10.15589186,13.97348937,14.15557117,0.258532018,0.230481444,9.905453755,9.905453755,0.698113863,1.905721596,34.69099077,34.3231575,17.86992005,19,25,99,83,3.599805388,3
680.0078122,9.946526924,10.15094075,13.92679027,14.19606283,0.258169938,0.228067591,9.901655591,9.901655591,0.697950704,1.903602144,34.6859997,34.31805539,17.91215842,19,26,99,83,3.599805388,3
681.0078122,9.944984586,10.15093658,13.90230501,14.21543693,0.258294909,0.226224318,9.896590266,9.896590266,0.697790214,1.901548441,34.68105495,34.31297714,17.91215842,19,26,99,83,3.599805388,3
682.0078122,9.942491576,10.15697798,13.92137021,14.22730983,0.258758365,0.225483992,9.892184548,9.892184548,0.69761877,1.899583388,34.6760634,34.3079622,17.91215842,19,26,99,83,3.599805388,3
683.0078122,9.939269782,10.16464618,13.96406177,14.22913568,0.259636727,0.225907396,9.890784368,9.890784368,0.697447943,1.897638635,34.67109349,34.30296583,17.91215842,19,26,99,83,3.599805388,3
684.0078122,9.937573921,10.16913446,13.9964735,14.2132754,0.261070845,0.227128379,9.894168588,9.894168588,0.697276815,1.895698204,34.6660741,34.29793374,17.95940541,18,26,99,84,3.599805388,3
685.0078122,9.938241306,10.1704747,14.01070774,14.19553207,0.263135281,0.228679382,9.902283122,9.902283122,0.697102367,1.893689603,34.6610201,34.29298466,17.95940541,18,26,99,84,3.599805388,3
686.0078122,9.940397705,10.17085547,14.0339791,14.19337919,0.265786592,0.230379061,9.909137825,9.909137825,0.696926536,1.891728388,34.65598262,34.28806737,17.95940541,18,26,99,84,3.599805388,3
687.0078122,9.943583156,10.16961869,14.08934935,14.202796,0.268831592,0.232473289,9.908070881,9.908070881,0.696742079,1.889808652,34.65104789,34.28292821,18.00694184,18,26,99,84,3.599805388,3
688.0078122,9.947877737,10.16493579,14.15067303,14.21188379,0.271946185,0.23530602,9.903054064,9.903054064,0.696565499,1.887923564,34.64603017,34.27794984,18.00694184,18,26,99,84,3.599805388,3
689.0078122,9.952791966,10.15812381,14.17080282,14.21243884,0.274774511,0.238709612,9.906391949,9.906391949,0.696382478,1.886137574,34.64108368,34.27298638,18.00694184,18,26,99,84,3.599805388,3
690.0078122,9.957295876,10.1526017,14.14219022,14.19310323,0.276952639,0.24168509,9.924821287,9.924821287,0.696202052,1.884516641,34.63614888,34.26798275,18.04904079,18,26,99,84,3.599805388,3
691.0078122,9.960468429,10.15015587,14.1025397,14.14790073,0.278081109,0.242932563,9.948803037,9.948803037,0.696037999,1.882977088,34.63128964,34.26311332,18.04904079,18,26,99,84,3.599805388,3
692.0078122,9.962200298,10.14982693,14.09622027,14.10123262,0.277731327,0.241853352,9.959188871,9.959188871,0.695842398,1.881452624,34.62636359,34.25809926,18.04904079,18,26,99,84,3.599805388,3
693.0078122,9.963341083,10.15061644,14.12297056,14.10091758,0.275643805,0.239037556,9.951939244,9.951939244,0.695698383,1.879994445,34.62143725,34.25292187,18.08019478,18,26,99,84,3.599805388,3
694.0078122,9.963866275,10.154397,14.12171965,14.14857478,0.272043489,0.235746908,9.945826003,9.945826003,0.695535896,1.87858323,34.61668085,34.24802418,18.08019478,18,26,99,84,3.599805388,3
695.0078122,9.962564047,10.16294234,14.04456154,14.16672269,0.267757439,0.23303885,9.958856824,9.958856824,0.695367855,1.877229061,34.61184975,34.24322225,18.08019478,18,26,99,84,3.599805388,3
696.0078122,9.960207819,10.17353212,13.93596313,14.10047629,0.263902935,0.231417827,9.990610371,9.990610371,0.695190139,1.875916906,34.6071102,34.23826534,18.09643548,18,26,99,84,3.599805388,3
697.0078122,9.959195235,10.18196804,13.88478702,14.00163905,0.26138739,0.231049675,10.02635679,10.02635679,0.695018128,1.874669763,34.60219962,34.2333417,18.09643548,18,26,99,84,3.599805388,3
698.0078122,9.959994889,10.18781465,13.91506782,13.95761726,0.260697701,0.231935673,10.04528498,10.04528498,0.69485793,1.873484615,34.59731016,34.22859488,18.09643548,18,26,99,84,3.599805388,3
699.0078122,9.961275258,10.19194226,13.97504509,13.9910171,0.262030545,0.233752302,10.03517457,10.03517457,0.694687202,1.872331388,34.59250601,34.22383179,18.09640427,18,27,99,84,3.599805388,3
700.0078122,9.961899604,10.19267694,14.01267088,14.05497199,0.265341763,0.235687371,10.0081034,10.0081034,0.694515864,1.871232745,34.58761612,34.21908386,18.09640427,18,27,99,84,3.599805388,3
701.0078122,9.961405105,10.18979358,14.0233712,14.09674657,0.270083811,0.236721566,9.988150379,9.988150379,0.694367501,1.87019134,34.58264784,34.21434641,18.09640427,18,27,99,84,3.599805388,3
702.0078122,9.959909055,10.18769614,14.03539851,14.10752924,0.274974424,0.236315263,9.985898378,9.985898378,0.694207705,1.869203356,34.57778999,34.20950304,18.08187177,18,27,99,85,3.599805388,3
703.0078122,9.957640844,10.1903528,14.06331411,14.10986582,0.278351915,0.234878454,9.994049464,9.994049464,0.694041469,1.86825929,34.57289306,34.20485052,18.08187177,18,27,99,85,3.599805388,3
704.0078122,9.954540311,10.19829876,14.08578772,14.120691,0.279037694,0.23348149,9.999241363,9.999241363,0.693896468,1.867375874,34.56794126,34.20013757,18.08187177,18,27,99,85,3.599805388,3
705.0078122,9.950996729,10.21053581,14.0796153,14.14323104,0.277108192,0.233023949,9.992795965,9.992795965,0.693748359,1.866524288,34.56302479,34.19547122,18.08187177,18,27,99,85,3.599805388,3
706.0078122,9.947980014,10.2225069,14.05369654,14.17457104,0.273819887,0.233664018,9.974658957,9.974658957,0.693604729,1.865711548,34.5581481,34.19088636,18.05752697,18,27,99,85,3.599805388,3
707.0078122,9.946390074,10.22628125,14.03172803,14.20967048,0.270862024,0.234962687,9.951428213,9.951428213,0.693471514,1.864936149,34.55332766,34.18632362,18.05752697,18,27,99,85,3.599805388,3
708.0078122,9.947165219,10.21897627,14.02823621,14.2478791,0.269615061,0.236477394,9.929057178,9.929057178,0.693332479,1.864179088,34.548493,34.18190745,18.05752697,18,27,99,85,3.599805388,3
709.0078122,9.9502186,10.20659149,14.04450164,14.28577476,0.270768104,0.238253978,9.907503243,9.907503243,0.693203843,1.863449479,34.54365129,34.17745964,18.05752697,18,27,99,85,3.599805388,3
710.0078122,9.952554449,10.19671304,14.06489593,14.30122794,0.274187164,0.240820505,9.886199733,9.886199733,0.693090202,1.862746427,34.53870684,34.1731037,18.03003627,18,27,99,85,3.599805388,3
711.0078122,9.950199531,10.19121347,14.0779357,14.27316451,0.278973305,0.244634718,9.869333603,9.869333603,0.692956633,1.862082163,34.53402284,34.16875996,18.03003627,18,27,99,85,3.599805388,3
712.0078122,9.943719868,10.18649492,14.09460052,14.21774525,0.283822426,0.249409347,9.860695191,9.860695191,0.692841373,1.861417208,34.52912171,34.16449522,18.03003627,18,27,99,85,3.599805388,3
713.0078122,9.939438362,10.17784375,14.10942162,14.18092565,0.287637886,0.253968986,9.861095782,9.861095782,0.692734074,1.860761257,34.52431498,34.16026044,18.03003627,18,27,99,85,3.599805388,3
714.0078122,9.943092286,10.16534647,14.08850839,14.19870687,0.290039958,0.256864189,9.870917486,9.870917486,0.69262137,1.860129266,34.5194931,34.15600721,18.00656691,18,27,99,85,3.599805388,3
715.0078122,9.95366755,10.15620322,14.03156512,14.26333432,0.291357775,0.257249143,9.884980461,9.884980461,0.692529891,1.859491817,34.51467556,34.15190747,18.00656691,18,27,99,85,3.599805388,3
716.0078122,9.964154627,10.15568488,13.98730221,14.31609684,0.29204841,0.255297431,9.892456696,9.892456696,0.692438259,1.858862159,34.51002099,34.14789895,18.00656691,18,27,99,85,3.599805388,3
717.0078122,9.968035206,10.15896598,13.99962502,14.30675431,0.29203149,0.251891927,9.89027478,9.89027478,0.692343782,1.858225496,34.5052317,34.14383524,17.99312474,18,27,99,85,3.599805388,3
718.0078122,9.964755834,10.15913347,14.06993591,14.25178335,0.290664958,0.247950003,9.88192217,9.88192217,0.692259061,1.857559955,34.50044548,34.13970382,17.99312474,18,27,99,85,3.599805388,3
719.0078122,9.958029533,10.15530868,14.13252114,14.15933422,0.287433611,0.243920507,9.864812671,9.864812671,0.692185841,1.856891624,34.49564309,34.13560013,17.99312474,18,27,99,85,3.599805388,3
720.0078122,9.949684569,10.14668365,14.06547479,13.93563139,0.28259291,0.239702194,9.837071815,9.837071815,0.692118489,1.856188923,34.49100245,34.13152383,16.32659793,22,24,99,84,2.849480375,2
721.0078122,9.939384161,10.12950637,13.78493507,13.48229405,0.27703248,0.23488284,9.808443686,9.808443686,0.692063327,1.855453703,34.48634373,34.12763036,16.32659793,22,24,99,84,2.849480375,2
722.0078122,9.930227324,10.10463156,13.33247211,12.87291088,0.271567374,0.22914257,9.790544307,9.790544307,0.69201075,1.854711994,34.48156939,34.12353914,16.33740597,22,24,99,84,2.849480375,2
723.0078122,9.926946329,10.07910304,12.84854496,12.31842437,0.266424861,0.222659151,9.7840296,9.7840296,0.69195767,1.8539486,34.47677243,34.11955273,16.33740597,22,24,99,84,2.849480375,2
724.0078122,9.928823207,10.05854522,12.46255874,11.96276095,0.261303479,0.216235296,9.782688568,9.782688568,0.691920002,1.853147767,34.47219259,34.1155765,16.33740597,22,24,99,84,2.849480375,2
725.0078122,9.931079631,10.04509358,12.22685562,11.81308178,0.25584591,0.210953209,9.783799027,9.783799027,0.691884707,1.852332069,34.46748759,34.11169375,16.35811318,21,24,99,84,2.849480375,2
726.0078122,9.930866578,10.04191532,12.14454581,11.81999304,0.250186695,0.207578618,9.787915197,9.787915197,0.691868975,1.851481067,34.46285388,34.10789458,16.35811318,21,24,99,84,2.849480375,2
727.0078122,9.928530191,10.05120777,12.18987912,11.91461844,0.245170712,0.206208159,9.792658828,9.792658828,0.691864285,1.850583574,34.4582586,34.10398037,16.38693709,21,24,99,84,2.849480375,2
728.0078122,9.925832729,10.06716457,12.29294964,12.01473187,0.241956533,0.206395273,9.794221488,9.794221488,0.691866936,1.84965174,34.4538376,34.10005556,16.38693709,21,24,99,84,2.849480375,2
729.0078122,9.924081672,10.07733496,12.37145109,12.07427376,0.241198244,0.207498799,9.792177282,9.792177282,0.691877833,1.848669001,34.44928005,34.09614517,16.38693709,21,24,99,84,2.849480375,2
730.0078122,9.92303295,10.07421456,12.38744248,12.11199809,0.242541527,0.20884544,9.787915901,9.787915901,0.691894157,1.847659715,34.44490629,34.0921435,16.42128218,21,24,99,83,2.849480375,2
731.0078122,9.92163251,10.06254366,12.3471706,12.16441117,0.244894434,0.209698206,9.782297976,9.782297976,0.691916361,1.846607226,34.44053734,34.08800166,16.42128218,21,24,99,83,2.849480375,2
732.0078122,9.919926239,10.05178876,12.27062073,12.22370391,0.247258371,0.209383429,9.777509235,9.777509235,0.691954295,1.845513906,34.43607275,34.08400552,16.42128218,21,24,99,83,2.849480375,2
733.0078122,9.91916734,10.04611913,12.19158242,12.24657294,0.249280117,0.207691133,9.777925378,9.777925378,0.691975373,1.844380675,34.43158064,34.08000677,16.45781557,21,24,99,83,2.849480375,2
734.0078122,9.919827525,10.04425408,12.14882755,12.21689366,0.25112634,0.205162449,9.785583708,9.785583708,0.692023636,1.843202801,34.4273462,34.07584184,16.45781557,21,24,99,83,2.849480375,2
735.0078122,9.921517588,10.04351198,12.1433061,12.16555936,0.253054781,0.202905968,9.795336365,9.795336365,0.692078313,1.84200573,34.42301614,34.07176614,16.45781557,21,24,99,83,2.849480375,2
736.0078122,9.923911802,10.0424219,12.14129142,12.12510867,0.255162992,0.202053305,9.799506297,9.799506297,0.692126802,1.840778261,34.41863666,34.06764272,16.49256266,20,24,99,83,2.849480375,2
737.0078122,9.925953218,10.04162251,12.13063776,12.09523185,0.25732779,0.203170806,9.79801117,9.79801117,0.692192768,1.839512616,34.41433554,34.06353743,16.49256266,20,24,99,83,2.849480375,2
738.0078122,9.926440631,10.04279557,12.13212475,12.06425389,0.259179809,0.20586551,9.797576529,9.797576529,0.692258477,1.838212351,34.40999302,34.05932945,16.49256266,20,24,99,83,2.849480375,2
739.0078122,9.925976599,10.04648679,12.15600715,12.03919135,0.260182948,0.208835934,9.799987064,9.799987064,0.692331832,1.836878811,34.40568252,34.05501184,16.52105139,20,24,99,82,2.849480375,2
740.0078122,9.926263105,10.05109533,12.18837809,12.03619144,0.259903379,0.210512883,9.79954759,9.79954759,0.692420841,1.835514102,34.40128538,34.05070547,16.52105139,20,24,99,82,2.849480375,2
741.0078122,9.927803142,10.05457735,12.21302976,12.05034123,0.258320199,0.209974184,9.794895137,9.794895137,0.692513216,1.834106398,34.39701225,34.04626626,16.52105139,20,24,99,82,2.849480375,2
742.0078122,9.9297301,10.05627888,12.22013661,12.05394007,0.255946642,0.207482221,9.79400266,9.79400266,0.692603494,1.832615726,34.39277134,34.04170808,16.538555,20,24,99,82,2.849480375,2
743.0078122,9.931137816,10.0569403,12.21479158,12.03469613,0.253656854,0.204287838,9.803723247,9.803723247,0.692704914,1.831091071,34.38851353,34.03712644,16.538555,20,24,99,82,2.849480375,2
744.0078122,9.931724258,10.05808016,12.21199917,12.01419618,0.252151217,0.201867748,9.819326475,9.819326475,0.69281517,1.829596417,34.38419086,34.03252992,16.538555,20,24,99,82,2.849480375,2
745.0078122,9.931869331,10.06064488,12.20272487,12.01940397,0.25136361,0.201085987,9.827438738,9.827438738,0.692919126,1.828108199,34.3799956,34.02782603,16.5404839,20,24,99,82,2.849480375,2
746.0078122,9.932001234,10.06390071,12.17134275,12.05502558,0.250447166,0.20172609,9.823385323,9.823385323,0.693037093,1.826601496,34.37576848,34.02308425,16.5404839,20,24,99,82,2.849480375,2
747.0078122,9.932089744,10.06597519,12.13960106,12.0966357,0.248630669,0.202636292,9.818400247,9.818400247,0.693160911,1.825099197,34.37143968,34.01847787,16.5404839,20,24,99,82,2.849480375,2
748.0078122,9.932273622,10.06530112,12.1294826,12.10467743,0.246197283,0.202482798,9.819921469,9.819921469,0.693270565,1.823610068,34.36704721,34.01374281,16.52294666,19,24,99,82,2.849480375,2
749.0078122,9.932868131,10.0631601,12.12745776,12.06752866,0.244462012,0.200736211,9.820082695,9.820082695,0.693385575,1.822071517,34.36275142,34.00886303,16.52294666,19,24,99,82,2.849480375,2
750.0078122,9.933434431,10.06315415,12.12662491,12.02653134,0.244635875,0.198159274,9.811743713,9.811743713,0.693504972,1.82042557,34.35842333,34.00402848,16.52294666,19,24,99,82,2.849480375,2
751.0078122,9.932695137,10.06572674,12.14583992,12.03194382,0.246678449,0.196258748,9.800017894,9.800017894,0.693630035,1.818765549,34.35401544,33.99906958,16.48343951,19,24,99,81,2.849480375,2
752.0078122,9.929685392,10.0677239,12.18955418,12.08005575,0.249274191,0.196080773,9.792956025,9.792956025,0.693744377,1.817135671,34.34967866,33.99407535,16.48343951,19,24,99,81,2.849480375,2
753.0078122,9.925146926,10.06764966,12.22686926,12.11916482,0.251029595,0.197471334,9.790673781,9.790673781,0.693852626,1.815552948,34.34532337,33.98919325,16.48343951,19,24,99,81,2.849480375,2
754.0078122,9.921205849,10.06680239,12.22723828,12.1204393,0.251851508,0.199467989,9.788908935,9.788908935,0.693963249,1.81399248,34.34092046,33.98402336,16.42154871,19,24,99,81,2.849480375,2
755.0078122,9.919058573,10.06654139,12.20515242,12.11137755,0.2531444,0.201276399,9.786998552,9.786998552,0.694085492,1.81245882,34.33639678,33.97894805,16.42154871,19,24,99,81,2.849480375,2
756.0078122,9.918467221,10.06577993,12.19540699,12.11611529,0.256463058,0.202735283,9.787870351,9.787870351,0.694188749,1.810946985,34.33176767,33.97397734,16.42154871,19,24,99,81,2.849480375,2
757.0078122,9.919223928,10.0608808,12.18299936,12.10349517,0.261920941,0.203993963,9.796360992,9.796360992,0.694297671,1.809455471,34.3273584,33.96896655,16.42154871,19,24,99,81,2.849480375,2
758.0078122,9.920532722,10.05050652,12.11778773,12.0417753,0.268031842,0.204977974,9.815959719,9.815959719,0.694415438,1.808007344,34.32267266,33.96387076,16.3394901,19,24,99,81,2.849480375,2
759.0078122,9.920942446,10.04127609,12.00569464,11.97398525,0.273032535,0.20531138,9.839668855,9.839668855,0.694523655,1.806660054,34.31807154,33.95879026,16.3394901,19,24,99,81,2.849480375,2
760.0078122,9.921130446,10.04408168,11.92383003,11.97503932,0.275997644,0.204712229,9.852341548,9.852341548,0.694632091,1.805388904,34.31356653,33.95387594,16.3394901,19,24,99,81,2.849480375,2
761.0078122,9.923650261,10.06142461,11.93192316,12.04658662,0.2766059,0.203388832,9.849954109,9.849954109,0.694728145,1.804154566,34.30896147,33.948918,16.24229463,19,24,99,81,2.849480375,2
762.0078122,9.92913361,10.08165061,12.00800266,12.11911456,0.274433129,0.20199793,9.844381155,9.844381155,0.694818111,1.802924784,34.30431695,33.94405042,16.24229463,19,24,99,81,2.849480375,2
763.0078122,9.935312531,10.08997108,12.09389674,12.14581262,0.269108498,0.201132029,9.84397611,9.84397611,0.694904415,1.801712007,34.29970371,33.93924351,16.24229463,19,24,99,81,2.849480375,2
764.0078122,9.939164246,10.08397399,12.17746248,12.14747331,0.261055893,0.200770128,9.846452506,9.846452506,0.69498203,1.800517926,34.29492163,33.93439026,16.13749644,19,24,99,81,2.849480375,2
765.0078122,9.938771512,10.07352772,12.28802356,12.17120665,0.251612959,0.200233548,9.849919472,9.849919472,0.695064635,1.799349506,34.29024573,33.92974841,16.13749644,19,24,99,81,2.849480375,2
766.0078122,9.93476857,10.06749349,12.4249393,12.23446753,0.242376221,0.198735548,9.85073949,9.85073949,0.695147167,1.798200923,34.28538866,33.92511291,16.13749644,19,24,99,81,2.849480375,2
767.0078122,9.929906472,10.06777944,12.54071027,12.31845129,0.234633838,0.196052684,9.840859024,9.840859024,0.695217102,1.797098618,34.28057381,33.92053557,16.03428835,19,24,99,81,2.849480375,2
768.0078122,9.926354828,10.072929,12.59762806,12.39822796,0.229290924,0.192797915,9.820393326,9.820393326,0.695293447,1.796034758,34.27566056,33.91595603,16.03428835,19,24,99,81,2.849480375,2
769.0078122,9.924936213,10.08060624,12.60891377,12.47074744,0.226914207,0.190171919,9.798790315,9.798790315,0.695360018,1.795019144,34.27071731,33.91151351,16.03428835,19,24,99,81,2.849480375,2
770.0078122,9.925243542,10.08817463,12.6152943,12.54813888,0.227667837,0.189488435,9.784057742,9.784057742,0.695425557,1.794015587,34.26574895,33.90725214,15.94225068,18,24,99,81,2.849480375,2
771.0078122,9.925103058,10.09308822,12.63885188,12.62117794,0.231096097,0.191653642,9.778638807,9.778638807,0.695502801,1.79303286,34.26067695,33.90294549,15.94225068,18,24,99,81,2.849480375,2
772.0078122,9.922774398,10.09307827,12.67059335,12.65984561,0.236102012,0.196784175,9.780716033,9.780716033,0.695555028,1.792092327,34.25574464,33.89878824,15.94225068,18,24,99,81,2.849480375,2
773.0078122,9.919128161,10.08805247,12.69503834,12.65210109,0.241304496,0.204027955,9.7874871,9.7874871,0.695601869,1.791202011,34.25071811,33.89467605,15.86988995,18,24,99,81,2.849480375,2
774.0078122,9.916290157,10.08147119,12.70556796,12.60568416,0.24561935,0.21167982,9.795640796,9.795640796,0.695646238,1.790363433,34.24568922,33.8908295,15.86988995,18,24,99,81,2.849480375,2
775.0078122,9.915898807,10.07682893,12.68757471,12.51929979,0.24856113,0.217706749,9.799239133,9.799239133,0.695683255,1.78955905,34.2407769,33.88705259,15.86988995,18,24,99,81,2.849480375,2
776.0078122,9.917848227,10.07349239,12.61685029,12.38093101,0.250094797,0.220672248,9.793079956,9.793079956,0.695735774,1.788781157,34.23569553,33.88332683,15.82329888,18,24,99,81,2.849480375,2
777.0078122,9.920041014,10.06802242,12.4944645,12.20502619,0.250427069,0.220558716,9.779339621,9.779339621,0.695776637,1.788124369,34.23060918,33.87980457,15.82329888,18,24,99,81,2.849480375,2
778.0078122,9.921478949,10.05847209,12.35906196,12.06015915,0.250006619,0.218681904,9.768693908,9.768693908,0.695812893,1.787566421,34.22558533,33.87652363,15.82329888,18,24,99,81,2.849480375,2
779.0078122,9.923505516,10.0467998,12.25134069,12.02726993,0.249508369,0.216607886,9.77188708,9.77188708,0.695852847,1.787049864,34.22048524,33.87334998,15.80523929,18,24,99,81,2.849480375,2
780.0078122,9.926068232,10.03838524,12.18909324,12.12443812,0.249572206,0.215047743,9.789708701,9.789708701,0.695880487,1.786544424,34.21537917,33.87027883,15.80523929,18,24,99,81,2.849480375,2
781.0078122,9.927485455,10.03846223,12.17503506,12.28865214,0.250435582,0.213647369,9.813233872,9.813233872,0.69591271,1.786062266,34.2102738,33.86730116,15.80523929,18,24,99,81,2.849480375,2
782.0078122,9.928983197,10.04711507,12.20257132,12.42588679,0.251767004,0.211590795,9.83274603,9.83274603,0.695938618,1.78560556,34.20532062,33.86452099,15.80523929,18,24,99,81,2.849480375,2
783.0078122,9.933624991,10.05913503,12.25892291,12.47509409,0.252865828,0.208382813,9.845501398,9.845501398,0.695976382,1.785187193,34.20028791,33.86186385,15.81485366,18,24,99,81,2.849480375,2
784.0078122,9.939750036,10.0694281,12.32450601,12.43503547,0.253189963,0.20424934,9.857807215,9.857807215,0.696004128,1.784809733,34.19507968,33.85936712,15.81485366,18,24,99,81,2.849480375,2
785.0078122,9.941604065,10.07614038,12.3717581,12.35026548,0.252814607,0.199957812,9.882100533,9.882100533,0.696037305,1.784450229,34.1900349,33.85711144,15.81485366,18,24,99,81,2.849480375,2
786.0078122,9.937343907,10.08060946,12.39220218,12.28240026,0.252333195,0.196259394,9.92600158,9.92600158,0.696071349,1.784153566,34.18500444,33.85500457,15.81485366,18,24,99,81,2.849480375,2
787.0078122,9.930761171,10.08650495,12.40999958,12.26866495,0.25227526,0.193499773,9.972066697,9.972066697,0.696096975,1.784049441,34.17983976,33.85301517,15.84805703,19,24,99,81,2.849480375,2
788.0078122,9.925803129,10.09533154,12.44022489,12.29434698,0.252824924,0.191714325,9.981755015,9.981755015,0.69612057,1.784058572,34.17471067,33.85115062,15.84805703,19,24,99,81,2.849480375,2
789.0078122,9.923268958,10.10340344,12.45408725,12.32641392,0.254188642,0.190938407,9.943773844,9.943773844,0.696153122,1.784150521,34.16980041,33.84949622,15.84805703,19,24,99,81,2.849480375,2
790.0078122,9.921813595,10.10697569,12.41660689,12.35781497,0.256742212,0.19131788,9.892102744,9.892102744,0.696188441,1.784320685,34.16476406,33.84790836,15.89849558,19,24,99,82,2.849480375,2
791.0078122,9.920376744,10.10617123,12.33765198,12.39430789,0.260241038,0.192991283,9.858253897,9.858253897,0.696227352,1.784535702,34.15978918,33.84669133,15.89849558,19,24,99,82,2.849480375,2
792.0078122,9.919822002,10.10259041,12.25562681,12.44149846,0.263133036,0.195963825,9.840893549,9.840893549,0.696269977,1.78481389,34.1547271,33.84540082,15.89849558,19,24,99,82,2.849480375,2
793.0078122,9.922009922,10.09827821,12.20195757,12.51444659,0.263502182,0.200058621,9.826834884,9.826834884,0.696309374,1.785543847,34.14979603,33.84417479,15.95882925,19,24,99,82,2.849480375,2
794.0078122,9.926817409,10.09436597,12.19524715,12.61278802,0.261015783,0.204889981,9.813017736,9.813017736,0.696358715,1.787192594,34.14486826,33.84331532,15.95882925,19,24,99,82,2.849480375,2
795.0078122,9.931870861,10.08932117,12.23878622,12.69628446,0.257441801,0.209880186,9.803776431,9.803776431,0.696394929,1.789118369,34.13987081,33.84249346,15.95882925,19,24,99,82,2.849480375,2
796.0078122,9.934989326,10.08265225,12.31528961,12.70685973,0.254916479,0.214262923,9.800694022,9.800694022,0.696459694,1.791060995,34.13495377,33.84184587,16.02203758,19,24,99,82,2.849480375,2
797.0078122,9.935041886,10.07640992,12.38568035,12.62418117,0.253881827,0.217177372,9.803488657,9.803488657,0.696512781,1.793091169,34.129973,33.84123081,16.02203758,19,24,99,82,2.849480375,2
798.0078122,9.932421955,10.0709285,12.39865687,12.51092929,0.252947638,0.217868498,9.81449817,9.81449817,0.696572495,1.795257313,34.12516343,33.8409013,16.02203758,19,24,99,82,2.849480375,2
799.0078122,9.929340631,10.06543458,12.33636202,12.46282976,0.250525339,0.216121068,9.83039953,9.83039953,0.696633245,1.797595577,34.12028904,33.84074904,16.08246879,19,24,99,82,2.849480375,2
800.0078122,9.927918999,10.06214736,12.25234125,12.50061445,0.246369475,0.212679061,9.836940203,9.836940203,0.696698403,1.800109209,34.11561569,33.84061696,16.08246879,19,24,99,82,2.849480375,2
801.0078122,9.928655567,10.0637199,12.21332191,12.55525135,0.241715213,0.209094708,9.827210259,9.827210259,0.696770977,1.802766892,34.11079375,33.84062559,16.08246879,19,24,99,82,2.849480375,2
802.0078122,9.930861212,10.06800139,12.21587109,12.55223055,0.238269943,0.206865597,9.815515328,9.815515328,0.696839695,1.805599898,34.10607681,33.84084664,16.13643806,19,24,99,82,2.849480375,2
803.0078122,9.933477285,10.07026492,12.21826927,12.47643339,0.237125812,0.206547614,9.819460864,9.819460864,0.696920868,1.80877838,34.10132362,33.8411443,16.13643806,19,24,99,82,2.849480375,2
804.0078122,9.935656037,10.06989844,12.22026405,12.36744262,0.238306391,0.20768239,9.836301316,9.836301316,0.697006166,1.81233926,34.09668532,33.84157626,16.13643806,19,24,99,82,2.849480375,2
805.0078122,9.936650959,10.07089003,12.24615337,12.2785922,0.240960659,0.209596748,9.846206863,9.846206863,0.697105149,1.816048929,34.09207234,33.84213155,16.18230178,19,24,99,82,2.849480375,2
806.0078122,9.935384844,10.07445162,12.28058102,12.23573458,0.243884705,0.212271936,9.837751928,9.837751928,0.697198175,1.819873626,34.08746668,33.84282978,16.18230178,19,24,99,82,2.849480375,2
807.0078122,9.931751461,10.07535429,12.29665653,12.23421608,0.246047671,0.21636384,9.820132792,9.820132792,0.697305526,1.823852077,34.08292698,33.84360614,16.18230178,19,24,99,82,2.849480375,2
808.0078122,9.927772222,10.07055959,12.32806393,12.27152709,0.246945804,0.222269663,9.807510027,9.807510027,0.697405452,1.827987401,34.07854008,33.84443679,16.22005893,19,25,99,83,2.849480375,2
809.0078122,9.925279895,10.06484112,12.41889874,12.33885929,0.246716571,0.22907231,9.80310369,9.80310369,0.69751656,1.832285958,34.07401858,33.84531328,16.22005893,19,25,99,83,2.849480375,2
810.0078122,9.924356375,10.06201833,12.52697461,12.38993815,0.245977865,0.234554226,9.800145792,9.800145792,0.697628726,1.836746453,34.06954698,33.84652592,16.22005893,19,25,99,83,2.849480375,2
811.0078122,9.924760918,10.06016215,12.57608302,12.3790071,0.245271203,0.236424424,9.792729678,9.792729678,0.697744895,1.841339943,34.06524237,33.84780634,16.25063056,19,25,99,83,2.849480375,2
812.0078122,9.925992141,10.05785318,12.55434701,12.31299027,0.244488053,0.233813847,9.782945592,9.782945592,0.697860052,1.846127001,34.06090072,33.84915457,16.25063056,19,25,99,83,2.849480375,2
813.0078122,9.926741656,10.05620623,12.49098297,12.23000746,0.242961617,0.227755938,9.776768051,9.776768051,0.697985216,1.85109929,34.05656798,33.85061219,16.25063056,19,25,99,83,2.849480375,2
814.0078122,9.926019947,10.05559406,12.40634821,12.1678423,0.240276532,0.220261918,9.777612348,9.777612348,0.69811835,1.856171569,34.05219694,33.85215455,16.27502804,19,25,99,83,2.849480375,2
815.0078122,9.924676367,10.05701866,12.33717734,12.17308767,0.236947275,0.212937863,9.782697679,9.782697679,0.69824443,1.861299207,34.04798045,33.85383319,16.27502804,19,25,99,83,2.849480375,2
816.0078122,9.925088207,10.06282574,12.34499469,12.27015189,0.234236298,0.206413495,9.78389217,9.78389217,0.698373611,1.866496318,34.04375966,33.85554279,16.27502804,19,25,99,83,2.849480375,2
817.0078122,9.927592807,10.07083944,12.43938695,12.40140128,0.233303107,0.200756369,9.776810962,9.776810962,0.698498061,1.871720296,34.03951004,33.85734912,16.29363011,19,25,99,83,2.849480375,2
818.0078122,9.929144149,10.07498744,12.5380384,12.47957396,0.234432859,0.196013208,9.767537587,9.767537587,0.698621876,1.876933937,34.03545715,33.85919764,16.29363011,19,25,99,83,2.849480375,2
819.0078122,9.92763333,10.07438073,12.55893102,12.50408453,0.236921593,0.192278753,9.766188521,9.766188521,0.698749061,1.882061374,34.03147806,33.86125401,16.29363011,19,25,99,83,2.849480375,2
820.0078122,9.924013974,10.07387471,12.5225179,12.54439864,0.239656728,0.189521392,9.776432219,9.776432219,0.698882872,1.8871106,34.0273798,33.86339039,16.30575041,19,25,99,83,2.849480375,2
821.0078122,9.919769077,10.07683805,12.52017488,12.63201774,0.241915629,0.187609886,9.793071504,9.793071504,0.699020763,1.892101487,34.02345007,33.86568948,16.30575041,19,25,99,83,2.849480375,2
822.0078122,9.915786112,10.0828135,12.60050049,12.74505501,0.243788457,0.186551732,9.807576184,9.807576184,0.699152106,1.897051729,34.01942769,33.86797293,16.30575041,19,25,99,83,2.849480375,2
823.0078122,9.912756434,10.08910765,12.71766827,12.85176517,0.245924199,0.18662488,9.815006132,9.815006132,0.69929035,1.901926231,34.0155835,33.87031374,16.30959788,19,25,99,84,2.849480375,2
824.0078122,9.911000502,10.09293672,12.78382267,12.91074813,0.248831916,0.188158437,9.816070662,9.816070662,0.699428755,1.90670284,34.01184263,33.87278554,16.30959788,19,25,99,84,2.849480375,2
825.0078122,9.911013505,10.0938539,12.75208837,12.88468971,0.252211219,0.191242679,9.812379193,9.812379193,0.69956662,1.911351292,34.00800385,33.87530404,16.30959788,19,25,99,84,2.849480375,2
826.0078122,9.913775368,10.09362236,12.65370166,12.7859292,0.254937181,0.195743193,9.801826449,9.801826449,0.699698328,1.915863956,34.0043421,33.87804874,16.30959788,19,25,99,84,2.849480375,2
827.0078122,9.91905864,10.09420199,12.5612675,12.66368112,0.255903975,0.201572639,9.783867183,9.783867183,0.699827897,1.920177745,34.00065321,33.88086322,16.30263077,19,25,99,84,2.849480375,2
828.0078122,9.924942473,10.09548719,12.51553558,12.55002684,0.255083698,0.208729339,9.76718024,9.76718024,0.699952064,1.924280636,33.99708899,33.8836766,16.30263077,19,25,99,84,2.849480375,2
829.0078122,9.930165294,10.09413974,12.50674283,12.4537295,0.253729122,0.216812622,9.765052914,9.765052914,0.700083677,1.928160922,33.99356038,33.88661638,16.30263077,19,25,99,84,2.849480375,2
830.0078122,9.934591628,10.08832728,12.51204441,12.38717191,0.253334728,0.224439275,9.784237423,9.784237423,0.700208781,1.932135774,33.99007228,33.88964885,16.2822053,19,25,99,84,2.849480375,2
831.0078122,9.937580097,10.08254636,12.50748712,12.35380535,0.254243038,0.229423258,9.82080652,9.82080652,0.700342948,1.936560726,33.98660675,33.89292645,16.2822053,19,25,99,84,2.849480375,2
832.0078122,9.938982421,10.08220852,12.4710839,12.32471179,0.255308216,0.230050711,9.862808751,9.862808751,0.700555456,1.941099903,33.98311622,33.89629851,16.2822053,19,25,99,84,2.849480375,2
833.0078122,9.939697838,10.08743054,12.4178263,12.28462273,0.25501218,0.226519242,9.896536386,9.896536386,0.700841371,1.946817864,33.9797511,33.89970828,16.24634875,19,25,99,84,2.849480375,2
834.0078122,9.939130409,10.09381561,12.3981159,12.27267649,0.252817177,0.221021412,9.914420644,9.914420644,0.701159131,1.954050783,33.97644346,33.90322007,16.24634875,19,25,99,84,2.849480375,2
835.0078122,9.935948505,10.09457376,12.42404129,12.32115893,0.249333156,0.216089712,9.916115677,9.916115677,0.701486729,1.961128161,33.97314251,33.90685329,16.19446238,19,25,99,84,2.849480375,2
836.0078122,9.931022568,10.08585953,12.44212487,12.40502616,0.245517548,0.212776494,9.903903161,9.903903161,0.701795809,1.967808056,33.96991362,33.91053705,16.19446238,19,25,99,84,2.849480375,2
837.0078122,9.926315998,10.071733,12.42629896,12.4962873,0.242132838,0.210276589,9.882139575,9.882139575,0.702131819,1.974341711,33.96672918,33.91436511,16.19446238,19,25,99,84,2.849480375,2
838.0078122,9.923029479,10.05950416,12.42576316,12.59705462,0.239845756,0.207223075,9.858660823,9.858660823,0.702480395,1.980903254,33.96359179,33.91826907,16.12778715,19,25,99,84,2.849480375,2
839.0078122,9.92159442,10.05306644,12.46403665,12.68753999,0.239067882,0.20322903,9.84157552,9.84157552,0.702872143,1.988099203,33.96058746,33.92226645,16.12778715,19,25,99,84,2.849480375,2
840.0078122,9.921602537,10.05213995,12.48221664,12.71513341,0.239243539,0.199287947,9.836108042,9.836108042,0.703291803,1.996611922,33.95762501,33.92640383,16.12778715,19,25,99,84,2.849480375,2
841.0078122,9.922033462,10.05388224,12.43041797,12.65976164,0.238711852,0.196875874,9.846208506,9.846208506,0.70372581,2.005419265,33.95470722,33.93065466,16.04953143,19,25,99,84,2.849480375,2
842.0078122,9.921722368,10.05606474,12.33941218,12.56697054,0.235920502,0.196752779,9.873966419,9.873966419,0.704236134,2.015290149,33.95183663,33.93494803,16.04953143,19,25,99,84,2.849480375,2
843.0078122,9.920387432,10.05985056,12.2798074,12.50708227,0.230871465,0.198526903,9.912913344,9.912913344,0.704796962,2.025961718,33.94909918,33.9393777,16.04953143,19,25,99,84,2.849480375,2
844.0078122,9.919798488,10.06664431,12.29383061,12.51247303,0.22516032,0.201146786,9.944360858,9.944360858,0.705391712,2.036839232,33.94642621,33.94387538,16.04953143,19,25,99,84,2.849480375,2
845.0078122,9.921567508,10.07404937,12.37240074,12.55699781,0.220712214,0.203641395,9.949395077,9.949395077,0.706061096,2.049484198,33.94384993,33.94833326,15.96464132,19,25,99,84,2.849480375,2
846.0078122,9.92462939,10.07854334,12.47868381,12.59733178,0.218725847,0.205443163,9.927955053,9.927955053,0.706778567,2.064156705,33.94134188,33.9529606,15.96464132,19,25,99,84,2.849480375,2
847.0078122,9.927305726,10.07971312,12.57614821,12.61672926,0.219614899,0.206284102,9.89621753,9.89621753,0.707546074,2.079111084,33.93885232,33.95773987,15.96464132,19,25,99,84,2.849480375,2
848.0078122,9.928574533,10.0798085,12.63851753,12.62075303,0.223397955,0.206102731,9.866865376,9.866865376,0.708353267,2.09438027,33.93633238,33.962739,15.87926553,19,25,99,84,2.849480375,2
849.0078122,9.927218463,10.08053204,12.65963453,12.6248372,0.229843085,0.205173067,9.844203839,9.844203839,0.709216817,2.110339323,33.93376407,33.96782739,15.87926553,19,25,99,84,2.849480375,2
850.0078122,9.924149384,10.08125841,12.65402826,12.65261766,0.23842298,0.204220136,9.829748943,9.829748943,0.710140473,2.127012063,33.93126493,33.97295467,15.87926553,19,25,99,84,2.849480375,2
851.0078122,9.922676119,10.08034973,12.62937232,12.70394247,0.248336075,0.204144943,9.821103367,9.821103367,0.711111493,2.144442475,33.92897119,33.97803731,15.80001163,19,25,99,84,2.849480375,2
852.0078122,9.923552564,10.07677754,12.56803363,12.72866175,0.258553255,0.205392477,9.814703858,9.814703858,0.712117771,2.162677888,33.92683025,33.98328966,15.80001163,19,25,99,84,2.849480375,2
853.0078122,9.924967354,10.0710004,12.45791555,12.68227655,0.267799347,0.207501366,9.811837796,9.811837796,0.713200742,2.181482019,33.92465238,33.98867923,15.80001163,19,25,99,84,2.849480375,2
854.0078122,9.926889671,10.06750287,12.34207984,12.5912845,0.274619593,0.209437108,9.813828714,9.813828714,0.714400613,2.200598869,33.92240072,33.99413947,15.73310742,19,24,99,83,2.849480375,2
855.0078122,9.92935281,10.07309483,12.29750221,12.50652703,0.277727209,0.21059661,9.817176983,9.817176983,0.71574109,2.220937326,33.92039482,33.99969535,15.73310742,19,24,99,83,2.849480375,2
856.0078122,9.930067594,10.08726067,12.34075249,12.44020191,0.276604119,0.211504733,9.819537988,9.819537988,0.717152764,2.242384045,33.91841014,34.00517045,15.73310742,19,24,99,83,2.849480375,2
857.0078122,9.928077074,10.09979479,12.40799197,12.40333336,0.27199211,0.213344132,9.824255455,9.824255455,0.718632735,2.264629093,33.916523,34.01085837,15.68357778,19,24,99,83,2.849480375,2
858.0078122,9.924911986,10.10333415,12.43712061,12.42470022,0.265692866,0.216641782,9.835258817,9.835258817,0.720182536,2.287748091,33.91457515,34.01658674,15.68357778,19,24,99,83,2.849480375,2
859.0078122,9.921742543,10.10178878,12.4125558,12.48979439,0.259516333,0.220415322,9.850967407,9.850967407,0.721796502,2.311486046,33.91268522,34.02244679,15.68357778,19,24,99,83,2.849480375,2
860.0078122,9.919419245,10.10112886,12.35006699,12.52055678,0.254190926,0.222743468,9.863734523,9.863734523,0.723500667,2.335983296,33.9108843,34.02836885,15.65453627,19,24,99,83,2.849480375,2
861.0078122,9.919054096,10.09996851,12.28333209,12.44277739,0.249265544,0.222309471,9.863125478,9.863125478,0.725280635,2.362506138,33.90908171,34.0342629,15.65453627,19,24,99,83,2.849480375,2
862.0078122,9.92069701,10.09502749,12.24178583,12.27427767,0.244066957,0.219373911,9.843462351,9.843462351,0.72711788,2.390012025,33.90737182,34.04032158,15.65453627,19,24,99,83,2.849480375,2
863.0078122,9.923218898,10.08745744,12.23040896,12.13390931,0.23855605,0.215294005,9.811981838,9.811981838,0.729015287,2.417797844,33.9057247,34.04638927,15.64667992,19,24,99,83,2.849480375,2
864.0078122,9.925204536,10.08074873,12.24595197,12.12925791,0.233422636,0.211218921,9.786056246,9.786056246,0.730968706,2.446495438,33.90411162,34.05239839,15.64667992,19,24,99,83,2.849480375,2
865.0078122,9.92603908,10.07853944,12.2919316,12.2585415,0.22962519,0.207425648,9.777935221,9.777935221,0.732975759,2.475589278,33.90253416,34.05866203,15.64667992,19,24,99,83,2.849480375,2
866.0078122,9.926591747,10.08245637,12.36325333,12.43978063,0.22792421,0.203832282,9.783246051,9.783246051,0.73502755,2.504803906,33.9009937,34.06483828,15.64667992,19,24,99,83,2.849480375,2
867.0078122,9.927322077,10.08793391,12.43316826,12.5844576,0.228570549,0.200818028,9.790041198,9.790041198,0.737123387,2.534049057,33.89959756,34.07115001,15.65806286,19,24,99,83,2.849480375,2
868.0078122,9.926688667,10.08691737,12.46780439,12.64864961,0.231087034,0.199231781,9.796589965,9.796589965,0.739269117,2.563299302,33.89816535,34.07757667,15.65806286,19,24,99,83,2.849480375,2
869.0078122,9.923543335,10.07716169,12.44735498,12.65351744,0.234266274,0.199566268,9.809131947,9.809131947,0.741471882,2.592484878,33.89671682,34.08413014,15.65806286,19,24,99,83,2.849480375,2
870.0078122,9.919466294,10.06554961,12.37524227,12.64988835,0.236613293,0.201289114,9.82591321,9.82591321,0.743716606,2.621519136,33.8953949,34.09056403,15.68420536,19,24,99,83,2.849480375,2
871.0078122,9.916761051,10.06085727,12.27744475,12.65928857,0.237127613,0.203151949,9.836195482,9.836195482,0.745993224,2.650340396,33.89398783,34.09708674,15.68420536,19,24,99,83,2.849480375,2
872.0078122,9.916054165,10.064089,12.18654536,12.65431642,0.2359084,0.204301398,9.834918498,9.834918498,0.748355725,2.679840681,33.89262941,34.10361907,15.68420536,19,24,99,83,2.849480375,2
873.0078122,9.916885107,10.06822122,12.12441329,12.6042123,0.234143635,0.205178575,9.830923173,9.830923173,0.75078457,2.711097619,33.89139829,34.11031886,15.71856099,19,24,99,83,2.849480375,2
874.0078122,9.918574475,10.06776364,12.09493799,12.53678539,0.233472977,0.207225684,9.836691012,9.836691012,0.753242753,2.741930699,33.89028322,34.11705084,15.71856099,19,24,99,83,2.849480375,2
875.0078122,9.920851764,10.06381796,12.0951485,12.51610037,0.234993256,0.21144881,9.853082937,9.853082937,0.75573986,2.771905803,33.88919136,34.1237346,15.71856099,19,24,99,83,2.849480375,2
876.0078122,9.924359404,10.06069216,12.11841456,12.55381077,0.238396119,0.217036379,9.867982719,9.867982719,0.75826902,2.801192318,33.88812391,34.13048133,15.71856099,19,24,99,83,2.849480375,2
877.0078122,9.929501678,10.06171638,12.15889883,12.58763004,0.242001703,0.221455435,9.868276483,9.868276483,0.76080699,2.829871468,33.88716555,34.13730693,15.75331643,19,25,99,83,2.849480375,2
878.0078122,9.93516979,10.06825379,12.22135307,12.56066329,0.244074215,0.222104168,9.853009305,9.853009305,0.763357506,2.8580113,33.88614024,34.14439378,15.75331643,19,25,99,83,2.849480375,2
879.0078122,9.93900352,10.07864152,12.31435548,12.48870632,0.244274942,0.218111512,9.835453362,9.835453362,0.765898837,2.885568822,33.88502549,34.15128638,15.75331643,19,25,99,83,2.849480375,2
880.0078122,9.938922808,10.08725831,12.41400105,12.42493416,0.243519369,0.210817165,9.829689271,9.829689271,0.768522575,2.913567124,33.88395476,34.15828057,15.78044156,18,25,99,83,2.849480375,2
881.0078122,9.935528934,10.08983096,12.45988191,12.38234688,0.242429786,0.20280689,9.836492297,9.836492297,0.771274145,2.944880951,33.88297261,34.16532796,15.78044156,18,25,99,83,2.849480375,2
882.0078122,9.931469021,10.08871444,12.41994133,12.34065705,0.240538677,0.196423711,9.847238864,9.847238864,0.774067534,2.976719812,33.88193986,34.17245069,15.78044156,18,25,99,83,2.849480375,2
883.0078122,9.928016091,10.0876572,12.33049044,12.31066131,0.237234575,0.192694716,9.858303558,9.858303558,0.77686833,3.006963221,33.88102889,34.17952675,15.79285423,18,25,99,83,2.849480375,2
884.0078122,9.92588164,10.08721232,12.25743378,12.33024528,0.232914253,0.191194445,9.87297226,9.87297226,0.779733404,3.036203275,33.88014449,34.18652882,15.79285423,18,25,99,83,2.849480375,2
885.0078122,9.927228464,10.08759398,12.24237613,12.40317477,0.228775134,0.190802436,9.890234073,9.890234073,0.7826317,3.06482128,33.87937055,34.19364889,15.78552696,18,25,99,83,2.849480375,2
886.0078122,9.932403491,10.08831684,12.27895049,12.48265752,0.22577072,0.190704256,9.901065232,9.901065232,0.785546453,3.09292545,33.8784966,34.20073418,15.78552696,18,25,99,83,2.849480375,2
887.0078122,9.937823374,10.08697199,12.33310466,12.53500724,0.224124773,0.190868133,9.898542865,9.898542865,0.788490379,3.120635665,33.87765656,34.20788358,15.78552696,18,25,99,83,2.849480375,2
888.0078122,9.939674947,10.08349698,12.38184056,12.5841002,0.223684332,0.191783391,9.885083425,9.885083425,0.791464144,3.14805434,33.87689556,34.21499344,15.75635273,18,25,99,83,2.849480375,2
889.0078122,9.937044321,10.0825314,12.42512591,12.65197643,0.224387674,0.193871342,9.867685059,9.867685059,0.794463077,3.175063714,33.87607504,34.22204299,15.75635273,18,25,99,83,2.849480375,2
890.0078122,9.931544641,10.08783037,12.47185557,12.70512536,0.226263204,0.197107616,9.85259071,9.85259071,0.797493534,3.201413758,33.87536803,34.22907447,15.75635273,18,25,99,83,2.849480375,2
891.0078122,9.92613925,10.09634599,12.51833852,12.70534359,0.229088919,0.20102761,9.843691493,9.843691493,0.800570639,3.22685663,33.87468001,34.23590768,15.7066091,18,25,99,83,2.849480375,2
892.0078122,9.923156499,10.1017451,12.54962781,12.66918219,0.232126769,0.204887893,9.841255812,9.841255812,0.803580436,3.251746966,33.87406181,34.24272721,15.7066091,18,25,99,83,2.849480375,2
893.0078122,9.922104403,10.10263219,12.56707439,12.64287572,0.234324817,0.207779428,9.843368749,9.843368749,0.80650062,3.275355089,33.87334317,34.24981334,15.7066091,18,25,99,83,2.849480375,2
894.0078122,9.921051548,10.10300526,12.58222581,12.63822218,0.234983146,0.20881981,9.846648328,9.846648328,0.809415179,3.297128257,33.87265381,34.25662706,15.7066091,18,25,99,83,2.849480375,2
895.0078122,9.918950257,10.1034596,12.5806472,12.61320566,0.234266422,0.207569814,9.851272787,9.851272787,0.812326516,3.318723824,33.87198834,34.26336393,15.64091393,18,24,99,83,2.849480375,2
896.0078122,9.915530278,10.0987041,12.5380711,12.52867296,0.232915018,0.204393777,9.865954052,9.865954052,0.815240973,3.340683687,33.87142984,34.27010556,15.64091393,18,24,99,83,2.849480375,2
897.0078122,9.912446412,10.08855142,12.47122343,12.41767376,0.231420836,0.200348931,9.890182458,9.890182458,0.818173453,3.362935583,33.87088574,34.27666469,15.64091393,18,24,99,83,2.849480375,2
898.0078122,9.912702606,10.08194196,12.4266805,12.35674286,0.229657101,0.1966656,9.901317384,9.901317384,0.82109285,3.385174115,33.87032385,34.28323884,15.56664597,18,24,99,82,2.849480375,2
899.0078122,9.915779982,10.08428666,12.42205277,12.3633768,0.22739612,0.194238117,9.883927656,9.883927656,0.8239628,3.406609511,33.86972409,34.28975312,15.56664597,18,24,99,82,2.849480375,2
900.0078122,9.917783668,10.09057422,12.4367772,12.38064371,0.225068735,0.193378708,9.854504977,9.854504977,0.826812274,3.426430024,33.86925557,34.29611285,15.56664597,18,24,99,82,2.849480375,2
901.0078122,9.917406161,10.09525453,12.45861801,12.37295563,0.223876371,0.1938853,9.835980833,9.835980833,0.829629503,3.445736322,33.86868787,34.30240055,15.56664597,18,24,99,82,2.849480375,2
902.0078122,9.916716885,10.09972912,12.50517342,12.37583287,0.225107142,0.195456297,9.832000304,9.832000304,0.832390924,3.464135689,33.86828739,34.30858237,15.56664597,18,24,99,82,2.849480375,2
903.0078122,9.916669536,10.10556038,12.58491169,12.43735515,0.229158342,0.198279229,9.838496091,9.838496091,0.83507129,3.481462534,33.86784515,34.31453434,15.49289765,18,24,99,82,2.849480375,2
904.0078122,9.91659393,10.10787902,12.65862605,12.55655078,0.23509641,0.203345894,9.853641021,9.853641021,0.837756926,3.498637717,33.86739214,34.32045395,15.49289765,18,24,99,82,2.849480375,2
905.0078122,9.916418002,10.1009444,12.67026751,12.68776879,0.241147568,0.211951978,9.870832622,9.870832622,0.840479175,3.517155215,33.86682418,34.32626671,15.49289765,18,24,99,82,2.849480375,2
906.0078122,9.916096448,10.08826513,12.61659988,12.78372774,0.245739447,0.224257794,9.880818074,9.880818074,0.843215414,3.535569695,33.86652057,34.33190128,15.49289765,18,24,99,82,2.849480375,2
907.0078122,9.915170605,10.08288952,12.55687919,12.83005445,0.248197636,0.23778251,9.883025716,9.883025716,0.845915723,3.553142332,33.86617774,34.33736465,15.49289765,18,24,99,82,2.849480375,2
908.0078122,9.914830424,10.09348107,12.54508224,12.827245,0.248642697,0.247600088,9.886275046,9.886275046,0.848558918,3.570220303,33.86594375,34.34259637,15.49289765,18,24,99,82,2.849480375,2
909.0078122,9.918300338,10.11334111,12.59412515,12.75608154,0.247578035,0.249099284,9.895120768,9.895120768,0.851137953,3.586750438,33.86572591,34.34772322,15.42911775,18,24,99,82,2.849480375,2
910.0078122,9.926829006,10.12752377,12.70528109,12.61169534,0.245754973,0.24140038,9.897988728,9.897988728,0.853770881,3.603476787,33.86552559,34.35273862,15.42911775,18,24,99,82,2.849480375,2
911.0078122,9.936458438,10.12631413,12.85253258,12.46022685,0.244047921,0.228153892,9.881779321,9.881779321,0.856752772,3.624562589,33.86528287,34.35749376,15.42911775,18,24,99,82,2.849480375,2
912.0078122,9.941096534,10.11035135,12.93680153,12.38591664,0.242869824,0.214853471,9.854942312,9.854942312,0.859930535,3.647105814,33.86512149,34.36217793,15.38366779,19,24,99,82,2.849480375,2
913.0078122,9.9381273,10.08879885,12.86101985,12.38026718,0.241674362,0.205269273,9.834199864,9.834199864,0.863083387,3.667630437,33.86503292,34.36677659,15.38366779,19,24,99,82,2.849480375,2
914.0078122,9.929710902,10.07411954,12.66057155,12.37638646,0.239546383,0.199937068,9.821026747,9.821026747,0.866122986,3.686677206,33.86503929,34.37092138,15.38366779,19,24,99,82,2.849480375,2
915.0078122,9.920825851,10.07354579,12.47723974,12.37396623,0.236602317,0.197276246,9.811126776,9.811126776,0.869020067,3.704637609,33.86497225,34.37497829,15.38366779,19,24,99,82,2.849480375,2
916.0078122,9.916904538,10.08361078,12.41782102,12.42400314,0.234552788,0.195471685,9.807403876,9.807403876,0.871898241,3.722173126,33.86489696,34.3789095,15.36254068,19,24,99,82,2.849480375,2
917.0078122,9.919761726,10.09414925,12.47461521,12.51719563,0.235544103,0.193684844,9.811478409,9.811478409,0.874773844,3.739460104,33.86498946,34.38281469,15.36254068,19,24,99,82,2.849480375,2
918.0078122,9.925191963,10.09820486,12.56023733,12.58126424,0.240280553,0.192166925,9.819622305,9.819622305,0.877623767,3.756277359,33.8650634,34.38639462,15.36254068,19,24,99,82,2.849480375,2
919.0078122,9.926995612,10.09730683,12.60594204,12.57978318,0.247186059,0.191718809,9.833110297,9.833110297,0.880477837,3.772826612,33.86521168,34.38960138,15.36846465,19,24,99,82,2.849480375,2
920.0078122,9.92300662,10.09649067,12.6064533,12.54751435,0.253362791,0.19296856,9.858117028,9.858117028,0.883382328,3.78938355,33.86525809,34.3926981,15.36846465,19,24,99,82,2.849480375,2
921.0078122,9.916849554,10.09783644,12.57484815,12.53092725,0.256474211,0.195833472,9.887704723,9.887704723,0.886368723,3.8062086,33.86547205,34.39578613,15.40054342,19,24,99,82,2.849480375,2
922.0078122,9.913827833,10.09939074,12.51261974,12.53233641,0.255925214,0.199479885,9.898365432,9.898365432,0.889373841,3.822800099,33.86558277,34.3987384,15.40054342,19,24,99,82,2.849480375,2
923.0078122,9.914851555,10.09878402,12.44609688,12.53634135,0.252596755,0.202785164,9.877801162,9.877801162,0.892392323,3.839761048,33.86588179,34.40149494,15.40054342,19,24,99,82,2.849480375,2
924.0078122,9.916157134,10.09821749,12.44734281,12.56692874,0.247887967,0.204897886,9.842911375,9.842911375,0.895410626,3.856176216,33.86623351,34.40428664,15.45448302,19,24,99,82,2.849480375,2
925.0078122,9.914623326,10.10077846,12.56680094,12.63931787,0.243112817,0.205512242,9.818053802,9.818053802,0.898521422,3.872865735,33.86666689,34.40679206,15.45448302,19,24,99,82,2.849480375,2
926.0078122,9.910641438,10.1021607,12.74931653,12.68105983,0.239326528,0.204860795,9.812333075,9.812333075,0.901941947,3.892718147,33.86706662,34.40928587,15.45448302,19,24,99,82,2.849480375,2
927.0078122,9.907084299,10.09686813,12.86533363,12.60525735,0.237071469,0.203597056,9.825621701,9.825621701,0.90563291,3.916634438,33.86747306,34.41161696,15.52334879,20,24,99,82,2.849480375,2
928.0078122,9.907038402,10.08970723,12.84488044,12.4500876,0.236145956,0.202570172,9.855835007,9.855835007,0.90939264,3.940675619,33.86777218,34.41382917,15.52334879,20,24,99,82,2.849480375,2
929.0078122,9.911371357,10.08965631,12.74520509,12.36264212,0.235795038,0.202378056,9.889218548,9.889218548,0.913106653,3.964443052,33.86835739,34.41593925,15.52334879,20,24,99,82,2.849480375,2
930.0078122,9.917851889,10.09758666,12.66248289,12.42217131,0.235348256,0.20292258,9.899538844,9.899538844,0.916844646,3.987541953,33.86877469,34.41809268,15.59870714,20,24,99,82,2.849480375,2
931.0078122,9.922470899,10.106245,12.62483024,12.54297413,0.234634471,0.203440896,9.875108737,9.875108737,0.920598153,4.010362611,33.86925603,34.42011591,15.59870714,20,24,99,82,2.849480375,2
932.0078122,9.92331625,10.10845855,12.60834343,12.60645235,0.233796984,0.203133348,9.835238122,9.835238122,0.924347791,4.032721662,33.86980962,34.42222555,15.59870714,20,24,99,82,2.849480375,2
933.0078122,9.922226138,10.10433941,12.60314175,12.61414462,0.232891177,0.201842607,9.805092868,9.805092868,0.92809631,4.053197736,33.87025354,34.42424405,15.67194999,20,24,99,82,2.849480375,2
934.0078122,9.920562033,10.10051947,12.61220012,12.63637439,0.231864178,0.200144191,9.790792499,9.790792499,0.931875009,4.073863123,33.87077816,34.4262925,15.67194999,20,24,99,82,2.849480375,2
935.0078122,9.917901828,10.10202938,12.61718246,12.68632134,0.230900082,0.198845183,9.78447382,9.78447382,0.935860165,4.095845273,33.87131776,34.42842851,15.67194999,20,24,99,82,2.849480375,2
936.0078122,9.915358833,10.10739676,12.59017916,12.71686973,0.230543741,0.198427735,9.777763566,9.777763566,0.940263924,4.121874809,33.87187026,34.4304968,15.7355803,20,24,99,82,2.849480375,2
937.0078122,9.914903764,10.11140347,12.53454901,12.69399928,0.231335791,0.198821563,9.770212681,9.770212681,0.944845103,4.149206082,33.87241101,34.4324543,15.7355803,20,24,99,82,2.849480375,2
938.0078122,9.91612671,10.10960645,12.48315248,12.62611521,0.233451219,0.199488873,9.768353159,9.768353159,0.949457187,4.17543108,33.87288594,34.43437733,15.7355803,20,24,99,82,2.849480375,2
939.0078122,9.916763721,10.10244825,12.46133286,12.54820791,0.236852906,0.199751335,9.775742461,9.775742461,0.954110396,4.201100571,33.87340072,34.43659537,15.78425302,20,24,99,82,2.849480375,2
940.0078122,9.916543868,10.09718403,12.48484124,12.51009592,0.24161511,0.199302295,9.788391303,9.788391303,0.958804443,4.226049882,33.87415912,34.43878505,15.78425302,20,24,99,82,2.849480375,2
941.0078122,9.918078761,10.10111034,12.56794715,12.56526403,0.247701822,0.198519365,9.801572257,9.801572257,0.964132011,4.251330073,33.87471532,34.44099156,15.78425302,20,24,99,82,2.849480375,2
942.0078122,9.921892805,10.11244126,12.68231241,12.72320638,0.254210155,0.19811606,9.815683254,9.815683254,0.970117838,4.280752437,33.87539773,34.44317388,15.81540921,20,24,99,83,2.849480375,2
943.0078122,9.924593329,10.12271214,12.74315236,12.90298843,0.259211483,0.198356522,9.831365124,9.831365124,0.976439096,4.310937078,33.87593902,34.44548033,15.81540921,20,24,99,83,2.849480375,2
944.0078122,9.925051487,10.12558803,12.68813456,12.97855946,0.260747172,0.198765776,9.843884446,9.843884446,0.982859997,4.340740829,33.87647863,34.44793152,15.82940779,20,24,99,83,2.849480375,2
945.0078122,9.926821514,10.11948472,12.5393972,12.88356331,0.258186527,0.198779093,9.847296574,9.847296574,0.989542431,4.370564795,33.8769923,34.45050819,15.82940779,20,24,99,83,2.849480375,2
946.0078122,9.932148296,10.1065453,12.37447556,12.66800162,0.252568073,0.198553636,9.843155332,9.843155332,0.996802508,4.402240065,33.877449,34.45320656,15.82940779,20,24,99,83,2.849480375,2
947.0078122,9.937943263,10.09224467,12.26558513,12.46742421,0.245725384,0.198867896,9.84294977,9.84294977,1.004378032,4.436435063,33.8780874,34.45587912,15.82914193,19,24,99,83,2.849480375,2
948.0078122,9.939136123,10.0828864,12.2373893,12.39805966,0.239266224,0.2001989,9.853936082,9.853936082,1.012028881,4.470351764,33.87857705,34.45881536,15.82914193,19,24,99,83,2.849480375,2
949.0078122,9.934846503,10.08100925,12.26951118,12.46448819,0.234221105,0.20213761,9.865791444,9.865791444,1.019791963,4.503374541,33.87918348,34.46193814,15.82914193,19,24,99,83,2.849480375,2
950.0078122,9.929045505,10.08261376,12.33383226,12.58041364,0.231179966,0.203804738,9.866948006,9.866948006,1.027721817,4.53607632,33.8796402,34.46506679,15.81921913,19,24,99,83,2.849480375,2
951.0078122,9.92519825,10.080841,12.41191528,12.66457394,0.230376916,0.204678807,9.863829123,9.863829123,1.036266671,4.569472026,33.88008754,34.46837461,15.81921913,19,24,99,83,2.849480375,2
952.0078122,9.923692046,10.07397356,12.47908143,12.69324784,0.231546523,0.204968916,9.86819243,9.86819243,1.045732385,4.609187825,33.8805472,34.4716793,15.81921913,19,24,99,83,2.849480375,2
953.0078122,9.92329776,10.06724144,12.49459703,12.67780558,0.233883956,0.205371279,9.878823515,9.878823515,1.056143928,4.65063711,33.88119592,34.47498531,15.81921913,19,24,99,83,2.849480375,2
954.0078122,9.922001306,10.0658402,12.43400584,12.63671314,0.236477861,0.206542027,9.887968646,9.887968646,1.067075448,4.692528168,33.88180794,34.47842412,15.80487087,19,24,99,83,2.849480375,2
955.0078122,9.9186074,10.06974925,12.33258531,12.59721245,0.238850119,0.208589788,9.892734087,9.892734087,1.078061796,4.73290023,33.88223022,34.48212978,15.80487087,19,24,99,83,2.849480375,2
956.0078122,9.915277926,10.07613528,12.26436387,12.5920711,0.240938052,0.210906915,9.8909047,9.8909047,1.089263525,4.772220855,33.88271934,34.48573205,15.80487087,19,24,99,83,2.849480375,2
957.0078122,9.915705507,10.08397763,12.27402501,12.64200422,0.242513878,0.212592209,9.882438146,9.882438146,1.100742877,4.810969372,33.88321229,34.48960793,15.79082204,19,24,99,83,2.849480375,2
958.0078122,9.919981551,10.09427557,12.34494002,12.73094464,0.242943283,0.213164517,9.88306357,9.88306357,1.113432051,4.850785447,33.88370981,34.4934156,15.79082204,19,24,99,83,2.849480375,2
959.0078122,9.924263733,10.10511724,12.41096962,12.78776607,0.241743317,0.212779802,9.917713466,9.917713466,1.128295415,4.898398113,33.8843607,34.49735542,15.79082204,19,24,99,83,2.849480375,2
960.0078122,9.926037724,10.11089123,12.39834842,12.73400699,0.239247314,0.21170825,9.992467236,9.992467236,1.143881342,4.948553803,33.88484618,34.5013774,15.78036923,19,24,99,84,2.849480375,2
961.0078122,9.926584403,10.10939298,12.29880452,12.57754863,0.236509781,0.209841884,10.08059274,10.08059274,1.159913301,4.997392396,33.88549608,34.50550191,15.78036923,19,24,99,84,2.849480375,2
962.0078122,9.927640499,10.10301435,12.18962136,12.40493547,0.234626897,0.206946534,10.13476174,10.13476174,1.176679095,5.048475635,33.88595419,34.50962756,15.78036923,19,24,99,84,2.849480375,2
963.0078122,9.929518496,10.09370721,12.14787079,12.28544662,0.234261982,0.203267165,10.11695503,10.11695503,1.193873114,5.099168972,33.88656893,34.51394432,15.77487684,19,24,99,84,2.849480375,2
964.0078122,9.93261138,10.08428464,12.1885555,12.2538242,0.235525335,0.199608305,10.03056117,10.03056117,1.211395367,5.149178291,33.88715464,34.51820316,15.77487684,19,24,99,84,2.849480375,2
965.0078122,9.936731654,10.07944328,12.29231322,12.32298222,0.237820031,0.196798574,9.918659331,9.918659331,1.229349208,5.197648274,33.88793048,34.52248987,15.77487684,19,24,99,84,2.849480375,2
966.0078122,9.939668952,10.08087442,12.4195855,12.43903206,0.239819538,0.195233108,9.825032456,9.825032456,1.247788107,5.244338726,33.88843319,34.52679613,15.77380027,18,24,99,84,2.849480375,2
967.0078122,9.939324849,10.08536847,12.51378946,12.51160341,0.240165915,0.194903011,9.76748339,9.76748339,1.266692947,5.292474007,33.88906751,34.53100755,15.77380027,18,24,99,84,2.849480375,2
968.0078122,9.936306792,10.08851646,12.54498982,12.53586805,0.238528078,0.195654707,9.743555963,9.743555963,1.286090539,5.342218012,33.88974624,34.53534721,15.77380027,18,24,99,84,2.849480375,2
969.0078122,9.932612026,10.08892889,12.52873981,12.5871526,0.235828316,0.197262654,9.744721411,9.744721411,1.305927621,5.39268736,33.89034775,34.53965079,15.77520658,18,24,99,85,2.849480375,2
970.0078122,9.928950086,10.08838239,12.49215204,12.67330658,0.233232665,0.19932276,9.764497531,9.764497531,1.326109569,5.44334108,33.89110202,34.54394108,15.77520658,18,24,99,85,2.849480375,2
971.0078122,9.925177935,10.08830868,12.44943785,12.70641922,0.231154232,0.201159575,9.797788139,9.797788139,1.346309974,5.490436028,33.8918821,34.54827172,15.77520658,18,24,99,85,2.849480375,2
972.0078122,9.922727388,10.08912535,12.4121589,12.64608476,0.22940144,0.201925981,9.835766414,9.835766414,1.366645244,5.535694449,33.8926045,34.55251272,15.77520658,18,24,99,85,2.849480375,2
973.0078122,9.92386909,10.09183127,12.39777827,12.56307465,0.2280036,0.200959032,9.866486236,9.866486236,1.387342961,5.583515012,33.89344607,34.55660535,15.7766236,18,24,99,85,2.849480375,2
974.0078122,9.92763051,10.09616934,12.41012101,12.5252352,0.227535216,0.198248491,9.879864046,9.879864046,1.408399089,5.633085748,33.89420615,34.56076149,15.7766236,18,24,99,85,2.849480375,2
975.0078122,9.929233535,10.0997104,12.42339895,12.51127789,0.228713115,0.194659211,9.875871926,9.875871926,1.429703989,5.682959596,33.89494809,34.56499002,15.7766236,18,24,99,85,2.849480375,2
976.0078122,9.925030324,10.09949627,12.40289533,12.46886931,0.232008502,0.191623559,9.870037295,9.870037295,1.451104889,5.73238655,33.89589108,34.56915997,15.7766236,18,24,99,85,2.849480375,2
