Time (s),Waist Acceleration,Chest Acceleration,Left Ankle Acceleration,right Ankle Acceleration,EMG_magnitude_left,EMG_magnitude_right,left wrist Acceleration,right wrist Acceleration,left wrist electrodermal,right wrist electrodermal,left wrist Temperature,right wrist Temperature,VO2,Breath Frequency,Minute Ventilation,SpO2,Heart Rate,Energy expenditures (W/kg) ,Activity Code
360.0078122,9.891537809,9.871552837,10.01366941,10.08515964,0.133257299,0.146227539,9.852432941,9.852432941,0.238149699,0.25792152,34.69558483,35.55291819,8.452638218,16,13,99,78,1.729034719,2
361.0078122,9.897982471,9.899533941,10.20090638,10.27385302,0.144414729,0.169380394,9.904046954,9.904046954,0.238117139,0.257911065,34.69473127,35.55178183,8.452638218,16,13,99,78,1.729034719,2
362.0078122,9.907387876,9.94618198,10.51623971,10.56341658,0.153317272,0.188310345,9.961704154,9.961704154,0.23808313,0.257899843,34.69381861,35.55063177,8.452638218,16,13,99,78,1.729034719,2
363.0078122,9.920720568,10.00685499,10.96146932,10.95091474,0.158226799,0.200844932,10.01450413,10.01450413,0.238044353,0.257890665,34.69294314,35.54960835,8.64045859,16,14,99,78,1.729034719,2
364.0078122,9.936935847,10.06824523,11.42384658,11.39092455,0.159079292,0.207290291,10.05405433,10.05405433,0.238006074,0.257877202,34.69199214,35.54850904,8.64045859,16,14,99,78,1.729034719,2
365.0078122,9.95198987,10.11878401,11.7742416,11.79615092,0.157464867,0.208979381,10.07837324,10.07837324,0.237968438,0.257860475,34.69094764,35.54734391,8.64045859,16,14,99,78,1.729034719,2
366.0078122,9.961339343,10.15452447,11.99023577,12.09019169,0.15542828,0.207244776,10.08648271,10.08648271,0.237930206,0.25784313,34.689905,35.54614184,8.942285074,15,14,99,79,1.729034719,2
367.0078122,9.963138544,10.17589574,12.12735869,12.25812899,0.154370686,0.203158444,10.08015843,10.08015843,0.237892171,0.257825554,34.68894903,35.54498868,8.942285074,15,14,99,79,1.729034719,2
368.0078122,9.95871183,10.18221415,12.22147123,12.33806403,0.154751891,0.197628484,10.07034435,10.07034435,0.23784958,0.25780746,34.68813564,35.54403823,8.942285074,15,14,99,79,1.729034719,2
369.0078122,9.951427762,10.17408899,12.26741974,12.37486789,0.156316041,0.191656627,10.06879687,10.06879687,0.237804829,0.257791765,34.68735637,35.54288882,8.942285074,15,14,99,79,1.729034719,2
370.0078122,9.945142562,10.16000155,12.25740412,12.38489094,0.158453544,0.186495944,10.07367899,10.07367899,0.237765253,0.257781489,34.68631333,35.54183779,8.942285074,15,14,99,79,1.729034719,2
371.0078122,9.942261709,10.15177999,12.20825707,12.35548775,0.160539693,0.183371777,10.0730201,10.0730201,0.237724518,0.257766715,34.68533618,35.54057996,9.25007658,14,14,99,80,1.729034719,2
372.0078122,9.942846065,10.15347308,12.15473922,12.28126391,0.162149387,0.182831286,10.05863901,10.05863901,0.23768121,0.257757776,34.68429998,35.5392463,9.25007658,14,14,99,80,1.729034719,2
373.0078122,9.945020402,10.15923617,12.12146148,12.18844126,0.163103311,0.184301829,10.03238836,10.03238836,0.237641524,0.257746496,34.68348631,35.53790158,9.25007658,14,14,99,80,1.729034719,2
374.0078122,9.946145312,10.1620826,12.11149745,12.1086015,0.163500108,0.186295019,10.00390062,10.00390062,0.237599652,0.257738541,34.68261288,35.5366101,9.25007658,14,14,99,80,1.729034719,2
375.0078122,9.945174879,10.16211519,12.12030759,12.05703879,0.163703635,0.187278336,9.980026092,9.980026092,0.237558917,0.257734415,34.68166144,35.53532165,9.25007658,14,14,99,80,1.729034719,2
376.0078122,9.943792267,10.16253571,12.13665808,12.04713431,0.164198279,0.186574884,9.957200868,9.957200868,0.237517522,0.257726708,34.68086877,35.53404874,9.25007658,14,14,99,80,1.729034719,2
377.0078122,9.943819714,10.16147287,12.1366494,12.08637364,0.165382874,0.184637814,9.931205266,9.931205266,0.237478653,0.257717595,34.67986326,35.5328046,9.47311144,13,15,99,81,1.729034719,2
378.0078122,9.945028562,10.15645858,12.10985447,12.15223922,0.167510633,0.182564076,9.908484824,9.908484824,0.237441374,0.257708173,34.67907369,35.53142127,9.47311144,13,15,99,81,1.729034719,2
379.0078122,9.946586908,10.15309994,12.08095653,12.20422301,0.170751613,0.181282118,9.899714822,9.899714822,0.237406739,0.257694119,34.67828994,35.53003761,9.47311144,13,15,99,81,1.729034719,2
380.0078122,9.948190916,10.15942273,12.07200444,12.22148793,0.175073721,0.181060822,9.906649467,9.906649467,0.237365397,0.25768168,34.67746203,35.52862414,9.47311144,13,15,99,81,1.729034719,2
381.0078122,9.949190686,10.17582098,12.06602052,12.22043712,0.179848885,0.181650947,9.921154729,9.921154729,0.237329075,0.257668751,34.67657093,35.52726936,9.47311144,13,15,99,81,1.729034719,2
382.0078122,9.948743524,10.19640386,12.04126971,12.23841321,0.183670449,0.1826853,9.935971918,9.935971918,0.23729896,0.257657877,34.67581688,35.52576675,9.570613177,12,15,99,81,1.729034719,2
383.0078122,9.947080976,10.21443655,12.01785723,12.28831953,0.184948847,0.183776382,9.953529634,9.953529634,0.237268111,0.257651188,34.67512448,35.52423083,9.570613177,12,15,99,81,1.729034719,2
384.0078122,9.945210385,10.22405997,12.034876,12.33359026,0.183019143,0.18440474,9.981523729,9.981523729,0.237234492,0.257640832,34.67436489,35.52271877,9.570613177,12,15,99,81,1.729034719,2
385.0078122,9.94329376,10.22273228,12.09458969,12.32913565,0.178690267,0.184141402,10.01879006,10.01879006,0.237198981,0.25763254,34.67365951,35.52133747,9.570613177,12,15,99,81,1.729034719,2
386.0078122,9.941019756,10.2143842,12.17024484,12.27063001,0.173666238,0.18317662,10.05228374,10.05228374,0.237170496,0.257629031,34.67299928,35.51991322,9.570613177,12,15,99,81,1.729034719,2
387.0078122,9.938858676,10.20579949,12.23861686,12.18679623,0.169372169,0.182469868,10.07239936,10.07239936,0.237140286,0.257619875,34.6725392,35.51849805,9.554306146,11,15,99,82,1.729034719,2
388.0078122,9.937140912,10.19949336,12.26928612,12.10872229,0.166251031,0.183117185,10.08073029,10.08073029,0.237113672,0.257613727,34.67189915,35.51701344,9.554306146,11,15,99,82,1.729034719,2
389.0078122,9.935503025,10.19393981,12.24378447,12.0633498,0.163956519,0.185492944,10.07856707,10.07856707,0.23709099,0.257611799,34.67128396,35.5155534,9.554306146,11,15,99,82,1.729034719,2
390.0078122,9.93406501,10.18958136,12.19649362,12.07314479,0.162051899,0.189072799,10.05950823,10.05950823,0.237069736,0.257608354,34.67071586,35.51405799,9.554306146,11,15,99,82,1.729034719,2
391.0078122,9.933594953,10.190551,12.18334408,12.13577195,0.160543716,0.193100977,10.0178458,10.0178458,0.237052672,0.257609472,34.67045549,35.51258372,9.554306146,11,15,99,82,1.729034719,2
392.0078122,9.93447112,10.1992467,12.22367503,12.21184031,0.159891051,0.19728054,9.959240527,9.959240527,0.237036921,0.257610508,34.66997471,35.51111031,9.554306146,11,15,99,82,1.729034719,2
393.0078122,9.936251722,10.21059722,12.29347493,12.25587204,0.160619006,0.201705031,9.899968333,9.899968333,0.237014658,0.2576086,34.66957153,35.50973412,9.470320028,11,15,99,83,1.729034719,2
394.0078122,9.938295203,10.21414151,12.35163394,12.2568252,0.162901142,0.206227169,9.857053225,9.857053225,0.236987402,0.257607005,34.66917674,35.50828038,9.470320028,11,15,99,83,1.729034719,2
395.0078122,9.940500798,10.20511881,12.37505912,12.23277224,0.166394648,0.210073466,9.840174047,9.840174047,0.236962209,0.257604915,34.66887751,35.50683479,9.470320028,11,15,99,83,1.729034719,2
396.0078122,9.942839269,10.19245359,12.38138563,12.20098591,0.170382064,0.212177574,9.847786527,9.847786527,0.236930293,0.25760377,34.66840217,35.5053994,9.470320028,11,15,99,83,1.729034719,2
397.0078122,9.944487873,10.18954144,12.39806411,12.17615006,0.174056012,0.212005834,9.867403612,9.867403612,0.236904767,0.25760068,34.6681636,35.50397616,9.470320028,11,15,99,83,1.729034719,2
398.0078122,9.944644297,10.19727999,12.42206999,12.17997349,0.176768348,0.21017795,9.88362673,9.88362673,0.236878216,0.257592494,34.66784366,35.50250333,9.375383237,11,14,99,83,1.729034719,2
399.0078122,9.943807113,10.20306077,12.43182052,12.2197294,0.17813423,0.208230178,9.890465697,9.890465697,0.236847259,0.25758961,34.66743353,35.50109744,9.375383237,11,14,99,83,1.729034719,2
400.0078122,9.9433138,10.19610087,12.41325303,12.26382741,0.178102391,0.207512536,9.893317806,9.893317806,0.236816731,0.257585158,34.66722787,35.49973093,9.375383237,11,14,99,83,1.729034719,2
401.0078122,9.943755571,10.17816693,12.3670821,12.26478059,0.176908361,0.208122045,9.897445437,9.897445437,0.236778939,0.257582667,34.66684501,35.49819462,9.375383237,11,14,99,83,1.729034719,2
402.0078122,9.944138521,10.15991511,12.3079161,12.21119996,0.174928571,0.20889412,9.902155005,9.902155005,0.236739298,0.257572889,34.66648827,35.49674988,9.375383237,11,14,99,83,1.729034719,2
403.0078122,9.943447229,10.15136599,12.26016592,12.14105046,0.172527605,0.208450484,9.906300422,9.906300422,0.236704105,0.257567152,34.66636506,35.49528324,9.316544637,11,14,99,84,1.729034719,2
404.0078122,9.942213193,10.15611998,12.24801238,12.0936577,0.169972821,0.206306457,9.911618055,9.911618055,0.23666994,0.25755955,34.66603132,35.49376334,9.316544637,11,14,99,84,1.729034719,2
405.0078122,9.941042129,10.16930888,12.27647151,12.07123079,0.167437748,0.203155104,9.922027954,9.922027954,0.236630129,0.257557384,34.66584621,35.4922192,9.316544637,11,14,99,84,1.729034719,2
406.0078122,9.93961893,10.18077709,12.31857164,12.05853621,0.165112378,0.200274187,9.939554287,9.939554287,0.236589193,0.257553067,34.66575162,35.49067292,9.316544637,11,14,99,84,1.729034719,2
407.0078122,9.938320055,10.18431221,12.3320182,12.04566061,0.163329009,0.198630676,9.956611577,9.956611577,0.236543644,0.257544891,34.66557012,35.48909347,9.316544637,11,14,99,84,1.729034719,2
408.0078122,9.938634665,10.18168049,12.30072701,12.03055915,0.162507318,0.198390833,9.959952174,9.959952174,0.236499785,0.257540841,34.66539533,35.48760624,9.316544637,11,14,99,84,1.729034719,2
409.0078122,9.940858649,10.17722597,12.25442663,12.03076585,0.162868652,0.199157099,9.945430536,9.945430536,0.236456216,0.257537697,34.66524922,35.48610542,9.318117444,11,14,99,84,1.729034719,2
410.0078122,9.943051989,10.17239944,12.22934415,12.07329496,0.164144127,0.200515751,9.920156196,9.920156196,0.236412544,0.257527507,34.66516059,35.48449716,9.318117444,11,14,99,84,1.729034719,2
411.0078122,9.943991562,10.16532337,12.22265804,12.15760377,0.165604678,0.202171474,9.894347566,9.894347566,0.236368023,0.257518854,34.66515409,35.48289511,9.318117444,11,14,99,84,1.729034719,2
412.0078122,9.945129633,10.15692593,12.21680989,12.2505601,0.16653347,0.20361801,9.878267657,9.878267657,0.236319133,0.25750735,34.665273,35.48136388,9.318117444,11,14,99,84,1.729034719,2
413.0078122,9.947414051,10.15487367,12.22266781,12.30755441,0.166774316,0.2040357,9.879287533,9.879287533,0.236269927,0.257494304,34.6652534,35.47982212,9.318117444,11,14,99,84,1.729034719,2
414.0078122,9.948745228,10.16378268,12.25983875,12.29576568,0.166825471,0.202856427,9.894104583,9.894104583,0.236217895,0.25748264,34.66520048,35.47812887,9.378228881,10,14,99,84,1.729034719,2
415.0078122,9.946466363,10.17558483,12.31463573,12.2210903,0.167327016,0.200352109,9.909669252,9.909669252,0.236161296,0.257468018,34.66519923,35.47650812,9.378228881,10,14,99,84,1.729034719,2
416.0078122,9.940671632,10.17709581,12.34052314,12.1269172,0.16847332,0.197448857,9.91944056,9.91944056,0.236103313,0.257458266,34.66523746,35.47478908,9.378228881,10,14,99,84,1.729034719,2
417.0078122,9.934539185,10.16562672,12.31074436,12.05567252,0.169889731,0.194958984,9.930282993,9.930282993,0.236045586,0.257445518,34.66522773,35.47321052,9.378228881,10,14,99,84,1.729034719,2
418.0078122,9.931670804,10.15188823,12.26103807,12.0188901,0.170964199,0.193176804,9.948177065,9.948177065,0.235985015,0.257433983,34.66519139,35.4713238,9.378228881,10,14,99,84,1.729034719,2
419.0078122,9.932757516,10.14607963,12.24280584,12.00996693,0.17126458,0.192183931,9.972265031,9.972265031,0.235926092,0.257422524,34.66504538,35.46937364,9.476566196,10,14,99,83,1.729034719,2
420.0078122,9.935117353,10.14809245,12.25586922,12.02833834,0.170766164,0.192179849,10.00338777,10.00338777,0.23586204,0.257409417,34.66494027,35.46748782,9.476566196,10,14,99,83,1.729034719,2
421.0078122,9.935937559,10.15244223,12.26262792,12.06650935,0.169817521,0.193249861,10.03746354,10.03746354,0.235797553,0.257397335,34.66471777,35.46558501,9.476566196,10,14,99,83,1.729034719,2
422.0078122,9.935499404,10.15327223,12.23693252,12.09370559,0.168871492,0.194954716,10.05480579,10.05480579,0.235737497,0.257386165,34.66474846,35.46386109,9.476566196,10,14,99,83,1.729034719,2
423.0078122,9.935843721,10.14660045,12.18105709,12.08328197,0.168132173,0.196419407,10.04056518,10.04056518,0.235677113,0.257372762,34.66474252,35.46183498,9.476566196,10,14,99,83,1.729034719,2
424.0078122,9.937030254,10.1351549,12.11615937,12.03881413,0.167423673,0.19689268,10.00701752,10.00701752,0.235615252,0.257359044,34.66478466,35.45984838,9.476566196,10,14,99,83,1.729034719,2
425.0078122,9.937733007,10.12757576,12.06804688,11.98362851,0.166455164,0.196192411,9.975746987,9.975746987,0.235552272,0.257350629,34.66487368,35.45804829,9.476566196,10,14,99,83,1.729034719,2
426.0078122,9.938341202,10.12963788,12.0575254,11.94536079,0.165232698,0.194691194,9.95329588,9.95329588,0.235486531,0.257341478,34.66488355,35.45595586,9.59040196,9,14,99,82,1.729034719,2
427.0078122,9.94008843,10.13817079,12.09283313,11.94099374,0.1641415,0.193016601,9.934522694,9.934522694,0.235418215,0.257330602,34.66486313,35.45391862,9.59040196,9,14,99,82,1.729034719,2
428.0078122,9.942557054,10.14458608,12.15751482,11.95700239,0.163616324,0.191781249,9.916632869,9.916632869,0.235357334,0.257319072,34.66485836,35.45166679,9.59040196,9,14,99,82,1.729034719,2
429.0078122,9.94434679,10.14362842,12.20816869,11.96052633,0.163776286,0.191504241,9.906077062,9.906077062,0.235289394,0.257302225,34.66476145,35.44955315,9.59040196,9,14,99,82,1.729034719,2
430.0078122,9.944937792,10.1375185,12.20822467,11.94158025,0.164369927,0.192584517,9.911217081,9.911217081,0.235223342,0.257286345,34.66483588,35.44726432,9.59040196,9,14,99,82,1.729034719,2
431.0078122,9.944517064,10.13196826,12.16597131,11.92138666,0.164981511,0.195051736,9.928251124,9.928251124,0.235159973,0.257265663,34.66475713,35.44502556,9.59040196,9,14,99,82,1.729034719,2
432.0078122,9.943114701,10.12948664,12.11826433,11.91723894,0.165260285,0.198199351,9.942753347,9.942753347,0.23509777,0.257247536,34.66478817,35.44268689,9.59040196,9,14,99,82,1.729034719,2
433.0078122,9.941048339,10.12799388,12.08390675,11.92672586,0.165058156,0.200699622,9.946062621,9.946062621,0.235034421,0.25722533,34.66490588,35.44045813,9.59040196,9,14,99,82,1.729034719,2
434.0078122,9.939314488,10.12591667,12.0506673,11.93941275,0.164472531,0.201424864,9.941432862,9.941432862,0.234972781,0.257204319,34.66484586,35.43820681,9.709552219,8,14,99,81,1.729034719,2
435.0078122,9.938737173,10.12434643,12.00066988,11.94112039,0.163777769,0.200223964,9.936331804,9.936331804,0.234913117,0.257182257,34.66498945,35.43593732,9.709552219,8,14,99,81,1.729034719,2
436.0078122,9.939190379,10.12478975,11.94379275,11.92365048,0.163253928,0.197841161,9.936500197,9.936500197,0.234850779,0.257167811,34.66506858,35.43371776,9.709552219,8,14,99,81,1.729034719,2
437.0078122,9.939792054,10.12934565,11.92011565,11.90448065,0.163013493,0.19522079,9.94311411,9.94311411,0.23478559,0.257142463,34.66510982,35.43129661,9.709552219,8,14,99,81,1.729034719,2
438.0078122,9.939507585,10.13797574,11.95567407,11.91332269,0.162957123,0.193015597,9.949364298,9.949364298,0.23471923,0.257128789,34.66498994,35.42903677,9.709552219,8,14,99,81,1.729034719,2
439.0078122,9.93788043,10.14462682,12.0285436,11.96014366,0.16289533,0.191580176,9.944140822,9.944140822,0.234650193,0.257112276,34.6648728,35.42658373,9.709552219,8,14,99,81,1.729034719,2
440.0078122,9.935553145,10.14383528,12.08901193,12.0340772,0.16270503,0.191001755,9.92486516,9.92486516,0.23457656,0.25709546,34.66475386,35.42409533,9.709552219,8,14,99,81,1.729034719,2
441.0078122,9.933850909,10.1380967,12.10692518,12.11250224,0.162372269,0.191032214,9.900947425,9.900947425,0.234506721,0.257084316,34.66471872,35.42159701,9.709552219,8,14,99,81,1.729034719,2
442.0078122,9.933773803,10.13291947,12.0974325,12.16003483,0.161930896,0.191157778,9.880618898,9.880618898,0.234429304,0.25707142,34.66475858,35.41915526,9.84043113,8,13,99,80,1.729034719,2
443.0078122,9.935324122,10.13014349,12.0961107,12.15303921,0.161396601,0.190931366,9.863558706,9.863558706,0.234349644,0.257056214,34.66463201,35.41658051,9.84043113,8,13,99,80,1.729034719,2
444.0078122,9.937593275,10.13004013,12.1197068,12.11212363,0.160717331,0.190304475,9.849996096,9.849996096,0.23427904,0.257033931,34.6645955,35.41418284,9.84043113,8,13,99,80,1.729034719,2
445.0078122,9.939760807,10.13450349,12.16336974,12.0757294,0.159766516,0.189668104,9.84559833,9.84559833,0.234199528,0.256999868,34.66449785,35.41166189,9.84043113,8,13,99,80,1.729034719,2
446.0078122,9.941615412,10.14303298,12.20984887,12.05417065,0.158465597,0.189559443,9.851446299,9.851446299,0.23411647,0.25696804,34.6643971,35.40892829,9.84043113,8,13,99,80,1.729034719,2
447.0078122,9.942716513,10.14846417,12.22938045,12.03910682,0.156984893,0.190193637,9.85947135,9.85947135,0.234034573,0.256937218,34.66422399,35.40621095,9.84043113,8,13,99,80,1.729034719,2
448.0078122,9.94227447,10.14374391,12.20621959,12.03110132,0.155788458,0.191163593,9.864854899,9.864854899,0.233949127,0.256907222,34.66410914,35.40355986,9.84043113,8,13,99,80,1.729034719,2
449.0078122,9.940367229,10.13180591,12.16345504,12.03513719,0.155397449,0.191672604,9.874167202,9.874167202,0.233857475,0.256876206,34.66398218,35.40085006,9.84043113,8,13,99,80,1.729034719,2
450.0078122,9.938193625,10.12258585,12.13100164,12.05015121,0.156060439,0.191169567,9.892596357,9.892596357,0.233767898,0.256845564,34.66375624,35.39817567,9.998007768,8,13,99,79,1.729034719,2
451.0078122,9.936707938,10.12210167,12.10557369,12.07029751,0.157660576,0.18968569,9.91171923,9.91171923,0.233671494,0.256811354,34.66349415,35.39541507,9.998007768,8,13,99,79,1.729034719,2
452.0078122,9.935732349,10.12930137,12.06616962,12.08694536,0.159941234,0.187520607,9.91895883,9.91895883,0.233578858,0.256777924,34.66322555,35.39263052,9.998007768,8,13,99,79,1.729034719,2
453.0078122,9.935097287,10.14068014,12.01955753,12.0997025,0.162782041,0.184822918,9.91173088,9.91173088,0.233491358,0.256748157,34.66303326,35.38975959,9.998007768,8,13,99,79,1.729034719,2
454.0078122,9.935380557,10.15288348,12.00882611,12.12130804,0.166136908,0.181721087,9.899754966,9.899754966,0.233404522,0.256719507,34.66286515,35.38691835,9.998007768,8,13,99,79,1.729034719,2
455.0078122,9.936239394,10.16290515,12.07221259,12.15765595,0.169637629,0.178750012,9.897443986,9.897443986,0.233314734,0.25668911,34.66254939,35.38407891,9.998007768,8,13,99,79,1.729034719,2
456.0078122,9.936131003,10.1686688,12.20012692,12.20154816,0.172365194,0.176806414,9.909108516,9.909108516,0.233221536,0.256662479,34.6622879,35.38131469,9.998007768,8,13,99,79,1.729034719,2
457.0078122,9.934993095,10.16922916,12.33553934,12.2503967,0.173261365,0.176473685,9.922741353,9.922741353,0.233126685,0.256635644,34.66195759,35.37845072,9.998007768,8,13,99,79,1.729034719,2
458.0078122,9.934679368,10.16488417,12.41843961,12.29871057,0.171954802,0.177400637,9.923653685,9.923653685,0.23303085,0.256606769,34.66165124,35.37557284,9.998007768,8,13,99,79,1.729034719,2
459.0078122,9.93598051,10.15760319,12.42852523,12.3160069,0.169187394,0.178449606,9.909457179,9.909457179,0.232933161,0.25657614,34.66127646,35.37268352,10.19339565,8,13,99,79,1.729034719,2
460.0078122,9.937540643,10.15007911,12.38390322,12.27550189,0.166368278,0.17856135,9.891441252,9.891441252,0.232829943,0.256539864,34.66086513,35.3696913,10.19339565,8,13,99,79,1.729034719,2
461.0078122,9.937890964,10.14363912,12.31561974,12.20773414,0.164664183,0.177544383,9.886179767,9.886179767,0.232734235,0.256508864,34.66054268,35.36680924,10.19339565,8,13,99,79,1.729034719,2
462.0078122,9.936709898,10.13814079,12.25019218,12.17210859,0.164394444,0.176081577,9.900697858,9.900697858,0.232641908,0.256476419,34.66023068,35.36396815,10.19339565,8,13,99,79,1.729034719,2
463.0078122,9.934561887,10.13351834,12.20158509,12.16887502,0.165118905,0.175101836,9.923636117,9.923636117,0.232536353,0.256442329,34.65987297,35.36106512,10.19339565,8,13,99,79,1.729034719,2
464.0078122,9.932233871,10.13002233,12.17599172,12.14861874,0.166229564,0.175251085,9.935825829,9.935825829,0.232437736,0.256409644,34.65950269,35.35815897,10.19339565,8,13,99,79,1.729034719,2
465.0078122,9.930025953,10.1274432,12.16655517,12.10323754,0.167479302,0.176814874,9.92882777,9.92882777,0.232335352,0.25637164,34.65912123,35.35513775,10.19339565,8,13,99,79,1.729034719,2
466.0078122,9.928619763,10.12474858,12.14815463,12.07027645,0.169026011,0.179738444,9.91121673,9.91121673,0.232227548,0.256337962,34.65873011,35.35208911,10.19339565,8,13,99,79,1.729034719,2
467.0078122,9.929800991,10.12074125,12.11493865,12.07163257,0.171057236,0.183531985,9.897373399,9.897373399,0.232128451,0.256310192,34.6583309,35.34908088,10.42510068,9,13,99,78,1.729034719,2
468.0078122,9.93465028,10.11619691,12.09891849,12.10127372,0.173475611,0.187326295,9.891957166,9.891957166,0.232024505,0.256280674,34.65790275,35.34590839,10.42510068,9,13,99,78,1.729034719,2
469.0078122,9.941790169,10.11479359,12.12203289,12.14638727,0.175967594,0.190256743,9.888848197,9.888848197,0.231921542,0.256252194,34.65741795,35.3427823,10.42510068,9,13,99,78,1.729034719,2
470.0078122,9.947646883,10.11878166,12.15992149,12.19482874,0.178271485,0.191822558,9.883573266,9.883573266,0.231819476,0.256225336,34.65690931,35.33980375,10.42510068,9,13,99,78,1.729034719,2
471.0078122,9.949309541,10.12395038,12.17157145,12.22953952,0.180260709,0.191834681,9.880672236,9.880672236,0.231713146,0.256200017,34.65646936,35.33659138,10.42510068,9,13,99,78,1.729034719,2
472.0078122,9.948023393,10.12469812,12.14864281,12.23710058,0.18182423,0.190138347,9.88644016,9.88644016,0.231612279,0.256183392,34.65574471,35.33340915,10.42510068,9,13,99,78,1.729034719,2
473.0078122,9.947672162,10.12318764,12.12184329,12.23088842,0.182857792,0.186662949,9.897033691,9.897033691,0.231515173,0.256164346,34.65526482,35.33016849,10.42510068,9,13,99,78,1.729034719,2
474.0078122,9.949267253,10.12605178,12.1240118,12.24868159,0.183411785,0.181900295,9.902008795,9.902008795,0.23141201,0.256149985,34.65476347,35.32687188,10.67736688,9,14,99,78,1.729034719,2
475.0078122,9.950247325,10.13430384,12.16062211,12.31269284,0.183641284,0.17714597,9.899519126,9.899519126,0.231318099,0.256138792,34.6543333,35.32376556,10.67736688,9,14,99,78,1.729034719,2
476.0078122,9.948909056,10.14110795,12.20718656,12.39111759,0.183475719,0.173919643,9.897053147,9.897053147,0.231222409,0.256119996,34.65376896,35.32054038,10.67736688,9,14,99,78,1.729034719,2
477.0078122,9.94656609,10.13797254,12.2341504,12.41642609,0.182522883,0.172999108,9.899053325,9.899053325,0.231125108,0.256104386,34.65338324,35.3171888,10.67736688,9,14,99,78,1.729034719,2
478.0078122,9.945501046,10.12402879,12.23338314,12.34977125,0.180524498,0.174054622,9.903561865,9.903561865,0.231034586,0.256091535,34.65290225,35.31401629,10.67736688,9,14,99,78,1.729034719,2
479.0078122,9.946511374,10.10903953,12.21822874,12.21779925,0.177867202,0.176151296,9.910602389,9.910602389,0.230944201,0.256081933,34.65250886,35.31079146,10.92626608,9,14,99,78,1.729034719,2
480.0078122,9.947913571,10.10352416,12.20210962,12.09711539,0.175458512,0.178434157,9.928060018,9.928060018,0.230855422,0.256074165,34.65200069,35.30749356,10.92626608,9,14,99,78,1.729034719,2
481.0078122,9.947160907,10.10756428,12.18273359,12.0572703,0.174074982,0.180414249,9.963855418,9.963855418,0.230768295,0.256067641,34.65148922,35.30424153,10.92626608,9,14,99,78,1.729034719,2
482.0078122,9.944358892,10.11491644,12.15565391,12.10018475,0.173838319,0.181913942,10.01207631,10.01207631,0.230683479,0.256065829,34.65097505,35.30088284,10.92626608,9,14,99,78,1.729034719,2
483.0078122,9.942667053,10.1237975,12.13379978,12.16138776,0.174236103,0.182980558,10.05247772,10.05247772,0.230601123,0.256065632,34.65037506,35.29762855,11.15058835,9,15,99,79,1.729034719,2
484.0078122,9.94423455,10.13449278,12.13161636,12.17162083,0.17456704,0.183835564,10.06757646,10.06757646,0.230523952,0.256067029,34.64984409,35.29442402,11.15058835,9,15,99,79,1.729034719,2
485.0078122,9.947489528,10.14095286,12.14212841,12.10977697,0.174388333,0.184807222,10.0580382,10.0580382,0.230449448,0.256064367,34.64913019,35.29095973,11.15058835,9,15,99,79,1.729034719,2
486.0078122,9.949319051,10.13492314,12.15161081,12.00698071,0.173615212,0.186274208,10.03852246,10.03852246,0.230377113,0.256061656,34.64846647,35.2877983,11.15058835,9,15,99,79,1.729034719,2
487.0078122,9.948715095,10.11739213,12.1591676,11.91368823,0.172318989,0.188607247,10.02250669,10.02250669,0.230307761,0.256063135,34.64796647,35.28440941,11.15058835,9,15,99,79,1.729034719,2
488.0078122,9.947571673,10.10001542,12.16666168,11.8591079,0.170593197,0.19199016,10.0148749,10.0148749,0.230237673,0.256067233,34.64739205,35.28114627,11.15058835,9,15,99,79,1.729034719,2
489.0078122,9.948333284,10.09397553,12.1610574,11.84088538,0.168677938,0.196132242,10.01501308,10.01501308,0.230172317,0.256074723,34.64678034,35.27783582,11.15058835,9,15,99,79,1.729034719,2
490.0078122,9.951555744,10.10078991,12.12566429,11.85520597,0.167109833,0.200179595,10.01951843,10.01951843,0.230114643,0.256083036,34.64602216,35.27471518,11.33856124,9,16,99,79,1.729034719,2
491.0078122,9.955715847,10.11528492,12.07490118,11.9095119,0.166575144,0.203168917,10.02127397,10.02127397,0.230057677,0.256093378,34.64534078,35.27163453,11.33856124,9,16,99,79,1.729034719,2
492.0078122,9.958849416,10.13174648,12.04030451,11.99163238,0.167474553,0.204736145,10.01192086,10.01192086,0.230000977,0.256101399,34.64466386,35.26853064,11.33856124,9,16,99,79,1.729034719,2
493.0078122,9.960168298,10.14519973,12.02250587,12.06559504,0.169486474,0.205373239,9.988331011,9.988331011,0.229945094,0.256110236,34.64393656,35.26536064,11.33856124,9,16,99,79,1.729034719,2
494.0078122,9.959584771,10.15141732,12.00582124,12.10635353,0.17162417,0.20573007,9.956093325,9.956093325,0.229892998,0.256116276,34.64322062,35.26217232,11.33856124,9,16,99,79,1.729034719,2
495.0078122,9.956589664,10.14792365,11.99423041,12.10619858,0.172953313,0.205691333,9.925142614,9.925142614,0.229837313,0.256117524,34.64237901,35.25900314,11.33856124,9,16,99,79,1.729034719,2
496.0078122,9.951467373,10.13702065,11.99269233,12.0657715,0.173455186,0.204354215,9.903368546,9.903368546,0.229795533,0.256117257,34.64147545,35.25576256,11.33856124,9,16,99,79,1.729034719,2
497.0078122,9.946315694,10.12664248,11.98782196,12.00989023,0.174164502,0.201019376,9.895442284,9.895442284,0.229756053,0.256117977,34.64068483,35.25263246,11.33856124,9,16,99,79,1.729034719,2
498.0078122,9.943276402,10.12201689,11.96849862,11.98459135,0.176276899,0.196160093,9.903648811,9.903648811,0.229717152,0.256120772,34.63986192,35.24953767,11.48258909,9,16,99,80,1.729034719,2
499.0078122,9.942632785,10.11963999,11.93976794,12.02203454,0.179882013,0.19144477,9.924065165,9.924065165,0.22968359,0.256121709,34.63903336,35.24667901,11.48258909,9,16,99,80,1.729034719,2
500.0078122,9.943039047,10.1159285,11.91209857,12.11055813,0.183417147,0.188793014,9.941624443,9.941624443,0.229650397,0.256124382,34.63830867,35.24375188,11.48258909,9,16,99,80,1.729034719,2
501.0078122,9.943212143,10.11397744,11.8958664,12.1874208,0.184495539,0.189054969,9.941406748,9.941406748,0.229621458,0.256126296,34.6374426,35.24075858,11.48258909,9,16,99,80,1.729034719,2
502.0078122,9.942979906,10.11508626,11.90254121,12.1912285,0.181636799,0.191158294,9.930589987,9.930589987,0.229595821,0.256128973,34.63635348,35.23778659,11.48258909,9,16,99,80,1.729034719,2
503.0078122,9.94240744,10.11386753,11.93692309,12.12633219,0.175464016,0.192570539,9.931721971,9.931721971,0.229577425,0.256120797,34.63535195,35.23493511,11.48258909,9,16,99,80,1.729034719,2
504.0078122,9.94116495,10.10837477,11.99557862,12.04419444,0.168238961,0.19108744,9.951005214,9.951005214,0.22955525,0.25612295,34.63441567,35.23198856,11.48258909,9,16,99,80,1.729034719,2
505.0078122,9.939713207,10.10546236,12.06947089,11.98994823,0.162307091,0.186503026,9.971838535,9.971838535,0.229542331,0.256133688,34.6334067,35.22903578,11.48258909,9,16,99,80,1.729034719,2
506.0078122,9.939100941,10.11164052,12.13724465,11.98446153,0.158776511,0.180599129,9.97882068,9.97882068,0.229527802,0.256138067,34.63241966,35.22620881,11.56774446,9,17,99,81,1.729034719,2
507.0078122,9.938566902,10.12496776,12.17201719,12.01830702,0.157404751,0.175572171,9.975593285,9.975593285,0.229515233,0.256142686,34.63129981,35.2234337,11.56774446,9,17,99,81,1.729034719,2
508.0078122,9.936726688,10.13765281,12.16699933,12.04748692,0.157344145,0.172607792,9.978609354,9.978609354,0.229507401,0.256140592,34.63020124,35.22058616,11.56774446,9,17,99,81,1.729034719,2
509.0078122,9.935207511,10.143502,12.15079275,12.02768061,0.157918971,0.171714224,10.00033087,10.00033087,0.229501181,0.256134183,34.62903718,35.21775243,11.56774446,9,17,99,81,1.729034719,2
510.0078122,9.936486858,10.14323866,12.16581457,11.97220748,0.158922923,0.172347734,10.04274368,10.04274368,0.229498524,0.256126659,34.62800455,35.21502906,11.56774446,9,17,99,81,1.729034719,2
511.0078122,9.939390858,10.14322351,12.22010835,11.94260858,0.160482122,0.173880072,10.09569002,10.09569002,0.229494543,0.256116691,34.62688865,35.21230493,11.56774446,9,17,99,81,1.729034719,2
512.0078122,9.941061421,10.14766815,12.2767264,11.9688517,0.162788594,0.175695002,10.13658706,10.13658706,0.229489173,0.256101108,34.62564213,35.2097088,11.56774446,9,17,99,81,1.729034719,2
513.0078122,9.941453666,10.15451873,12.30253479,12.02452974,0.165847541,0.177305469,10.14852674,10.14852674,0.229482934,0.256081341,34.62442348,35.20713804,11.57053345,10,18,99,82,1.729034719,2
514.0078122,9.942391419,10.15857685,12.29915195,12.08183827,0.169212263,0.178601698,10.13745329,10.13745329,0.229477277,0.256057385,34.62316486,35.20450178,11.57053345,10,18,99,82,1.729034719,2
515.0078122,9.943695345,10.15506979,12.27693812,12.1350096,0.171903012,0.179810777,10.11749431,10.11749431,0.229469322,0.25603711,34.62201313,35.20198011,11.57053345,10,18,99,82,1.729034719,2
516.0078122,9.943472069,10.1438147,12.23154865,12.1672704,0.172847087,0.180981097,10.09377635,10.09377635,0.229468674,0.256016134,34.6207702,35.19942867,11.57053345,10,18,99,82,1.729034719,2
517.0078122,9.942009225,10.13292611,12.16657844,12.15502414,0.171631551,0.181582443,10.0716985,10.0716985,0.229467913,0.255996316,34.61955681,35.1968708,11.57053345,10,18,99,82,1.729034719,2
518.0078122,9.941913486,10.13293042,12.12119021,12.11518393,0.168794567,0.180824396,10.06318036,10.06318036,0.229473304,0.255974648,34.61831353,35.1943625,11.47511333,10,18,99,83,1.729034719,2
519.0078122,9.94374755,10.14383611,12.13283601,12.08813792,0.165363518,0.178438378,10.07447925,10.07447925,0.229481212,0.255952453,34.61715727,35.19197712,11.47511333,10,18,99,83,1.729034719,2
520.0078122,9.945186147,10.15408706,12.18042281,12.07321958,0.162200632,0.175047835,10.09977004,10.09977004,0.229485257,0.255932527,34.61593636,35.18960294,11.47511333,10,18,99,83,1.729034719,2
521.0078122,9.944533782,10.1558759,12.21506156,12.04318883,0.159773484,0.171770883,10.1255927,10.1255927,0.229488401,0.255907511,34.61473199,35.18717984,11.47511333,10,18,99,83,1.729034719,2
522.0078122,9.942361679,10.15387526,12.22194535,12.00671971,0.158229569,0.169527701,10.13482609,10.13482609,0.22948625,0.2558819,34.61335395,35.18470662,11.47511333,10,18,99,83,1.729034719,2
523.0078122,9.940251359,10.15555769,12.21035375,11.99414552,0.157408167,0.168734485,10.11720484,10.11720484,0.229492689,0.255864384,34.61221565,35.18229922,11.47511333,10,18,99,83,1.729034719,2
524.0078122,9.939245245,10.16035545,12.18232097,11.99947666,0.156865579,0.169523917,10.08171023,10.08171023,0.229497506,0.255839404,34.61105289,35.18002359,11.29317658,10,18,99,84,1.729034719,2
525.0078122,9.939446213,10.16162428,12.14317587,11.99233715,0.156162009,0.171976999,10.04683818,10.04683818,0.229493366,0.255815657,34.60993854,35.17765089,11.29317658,10,18,99,84,1.729034719,2
526.0078122,9.940495567,10.15612555,12.11502648,11.97314853,0.155237,0.17585403,10.02182703,10.02182703,0.22949778,0.255795781,34.60870818,35.17529752,11.29317658,10,18,99,84,1.729034719,2
527.0078122,9.941939458,10.14866865,12.11650668,11.96727861,0.154443115,0.180091359,10.00770086,10.00770086,0.229494664,0.255768857,34.60749033,35.17294196,11.29317658,10,18,99,84,1.729034719,2
528.0078122,9.942649514,10.14598354,12.14028764,11.9798142,0.154156646,0.182932725,10.00903396,10.00903396,0.229485285,0.255745457,34.60628603,35.17064881,11.29317658,10,18,99,84,1.729034719,2
529.0078122,9.941100899,10.14800201,12.16484787,11.99890819,0.154362631,0.182977455,10.03400759,10.03400759,0.229485237,0.255721403,34.60520231,35.16830426,11.06714629,10,17,99,84,1.729034719,2
530.0078122,9.937705706,10.14961864,12.18200766,12.02393134,0.154642854,0.180230468,10.07960742,10.07960742,0.229478829,0.255689372,34.60409239,35.16587492,11.06714629,10,17,99,84,1.729034719,2
531.0078122,9.934812391,10.1483188,12.19629431,12.05453392,0.154570652,0.176054244,10.12448099,10.12448099,0.229471154,0.255666256,34.60293634,35.16346834,11.06714629,10,17,99,84,1.729034719,2
532.0078122,9.93399708,10.14499839,12.2080222,12.07632893,0.154096049,0.172156859,10.14201609,10.14201609,0.229463802,0.255635202,34.60188192,35.16099353,11.06714629,10,17,99,84,1.729034719,2
533.0078122,9.935452815,10.14116647,12.21413667,12.08298371,0.153570759,0.169573521,10.11657137,10.11657137,0.229450823,0.255604699,34.60083616,35.15858328,11.06714629,10,17,99,84,1.729034719,2
534.0078122,9.938534271,10.13855532,12.2112378,12.08702251,0.153475574,0.168413551,10.05694439,10.05694439,0.229441995,0.255579156,34.59973897,35.15631276,10.85222829,10,16,99,84,1.729034719,2
535.0078122,9.941352956,10.13835409,12.1957923,12.09850715,0.154187731,0.168259102,9.997669648,9.997669648,0.229427368,0.255553978,34.59871399,35.15382768,10.85222829,10,16,99,84,1.729034719,2
536.0078122,9.941897893,10.14000503,12.17280893,12.11331584,0.15595152,0.16868384,9.970976451,9.970976451,0.229405466,0.255522054,34.59773008,35.15142057,10.85222829,10,16,99,84,1.729034719,2
537.0078122,9.940599405,10.14165687,12.15170954,12.11949259,0.15887445,0.169476718,9.978037854,9.978037854,0.229389304,0.25549223,34.59667379,35.14903474,10.85222829,10,16,99,84,1.729034719,2
538.0078122,9.940022641,10.14309848,12.14112421,12.11379845,0.162719113,0.170550694,9.996304305,9.996304305,0.229367765,0.255459491,34.59572268,35.14646954,10.85222829,10,16,99,84,1.729034719,2
539.0078122,9.94153487,10.14823952,12.15833183,12.11039788,0.166666998,0.171832808,10.00438479,10.00438479,0.229336809,0.255426854,34.59467692,35.14392479,10.69158451,10,16,99,84,1.729034719,2
540.0078122,9.944176609,10.15842039,12.21019071,12.11360665,0.169573344,0.173340352,9.993821274,9.993821274,0.229307674,0.255395143,34.5936845,35.14146691,10.69158451,10,16,99,84,1.729034719,2
541.0078122,9.946419906,10.16573835,12.26138892,12.10580691,0.170744246,0.175274151,9.970339396,9.970339396,0.229273314,0.255363509,34.5927663,35.13889826,10.69158451,10,16,99,84,1.729034719,2
542.0078122,9.947196252,10.16270206,12.25890694,12.08100423,0.170418381,0.177848389,9.948061492,9.948061492,0.229233923,0.255326734,34.59188153,35.1363045,10.69158451,10,16,99,84,1.729034719,2
543.0078122,9.946281794,10.15298159,12.18924782,12.05371489,0.169387333,0.180922742,9.934704138,9.934704138,0.229195876,0.255293671,34.59101485,35.13345234,10.69158451,10,16,99,84,1.729034719,2
544.0078122,9.944761665,10.14500535,12.09173636,12.03074033,0.168325616,0.183887122,9.9260582,9.9260582,0.229150396,0.25526155,34.58994798,35.13078651,10.60122321,10,15,99,83,1.729034719,2
545.0078122,9.943767141,10.14137018,12.01974362,12.00864857,0.167589057,0.186025945,9.918987265,9.918987265,0.229098985,0.255230195,34.58899908,35.12819605,10.60122321,10,15,99,83,1.729034719,2
546.0078122,9.942864944,10.13962432,12.00069938,11.99416651,0.167267589,0.187107998,9.918684283,9.918684283,0.229046713,0.255199637,34.58823823,35.12551179,10.60122321,10,15,99,83,1.729034719,2
547.0078122,9.941071865,10.13795533,12.02810208,11.99607604,0.167111931,0.187536229,9.929420269,9.929420269,0.228996394,0.255166869,34.58722668,35.12294014,10.60122321,10,15,99,83,1.729034719,2
548.0078122,9.938600938,10.13632444,12.07369274,12.00324983,0.166603246,0.187930757,9.946510765,9.946510765,0.228941236,0.255132279,34.58621579,35.12023283,10.60122321,10,15,99,83,1.729034719,2
549.0078122,9.936811366,10.13574988,12.10220884,11.99847948,0.165397529,0.188632516,9.956339959,9.956339959,0.228887302,0.255098292,34.5852885,35.11747316,10.60122321,10,15,99,83,1.729034719,2
550.0078122,9.936995999,10.13668754,12.09302146,11.98521522,0.163642717,0.189563904,9.945628385,9.945628385,0.228820278,0.255059621,34.58435091,35.11440397,10.57034112,9,15,99,83,1.729034719,2
551.0078122,9.939235371,10.13675925,12.06006034,11.97750731,0.161752504,0.190402876,9.917025117,9.917025117,0.228755967,0.255018667,34.58340334,35.11146005,10.57034112,9,15,99,83,1.729034719,2
552.0078122,9.94233871,10.13398189,12.04154419,11.97766297,0.160016768,0.190857785,9.887420658,9.887420658,0.228686641,0.254975495,34.58242365,35.10846539,10.57034112,9,15,99,83,1.729034719,2
553.0078122,9.944601338,10.13092704,12.05663675,11.98050334,0.158529491,0.190889886,9.868571993,9.868571993,0.228610578,0.254932877,34.58129929,35.105471,10.57034112,9,15,99,83,1.729034719,2
554.0078122,9.944613856,10.13039096,12.08294334,11.98248284,0.157325362,0.190702873,9.861871898,9.861871898,0.228532342,0.254892425,34.58032245,35.10244672,10.57034112,9,15,99,83,1.729034719,2
555.0078122,9.942535379,10.13086994,12.09874449,11.98175387,0.156432372,0.190462997,9.867699199,9.867699199,0.228453034,0.2548533,34.57931344,35.09934924,10.57034112,9,15,99,83,1.729034719,2
556.0078122,9.940392664,10.13048364,12.11680221,11.98654479,0.155851684,0.190060681,9.883229605,9.883229605,0.228366974,0.254814726,34.57832732,35.09633461,10.57034112,9,15,99,83,1.729034719,2
557.0078122,9.939786277,10.13003768,12.14065225,12.01470205,0.155569034,0.189224217,9.898288519,9.898288519,0.228279093,0.254773869,34.5773028,35.09331405,10.57279565,8,14,99,82,1.729034719,2
558.0078122,9.940019667,10.13040713,12.13590858,12.06875015,0.155564463,0.187868035,9.908888353,9.908888353,0.228186947,0.254730692,34.57633259,35.09006513,10.57279565,8,14,99,82,1.729034719,2
559.0078122,9.939749699,10.13280383,12.09019519,12.12256767,0.155780306,0.18626369,9.924746341,9.924746341,0.228090906,0.254690274,34.57521157,35.08676681,10.57279565,8,14,99,82,1.729034719,2
560.0078122,9.938966384,10.14088332,12.05138724,12.14697264,0.156131255,0.184864891,9.952056041,9.952056041,0.227996615,0.254651367,34.57414997,35.08353391,10.57279565,8,14,99,82,1.729034719,2
561.0078122,9.938054611,10.15410779,12.0568625,12.13565421,0.156554489,0.184024683,9.97824087,9.97824087,0.227896578,0.254603907,34.57308559,35.08038999,10.57279565,8,14,99,82,1.729034719,2
562.0078122,9.936839701,10.16226782,12.07354229,12.09320233,0.157004831,0.183906209,9.984630454,9.984630454,0.227796821,0.254558081,34.57210371,35.07725436,10.57279565,8,14,99,82,1.729034719,2
563.0078122,9.935813054,10.15789803,12.05672689,12.02731137,0.157383899,0.184584538,9.970225026,9.970225026,0.227691721,0.254510803,34.57109028,35.07410958,10.57279565,8,14,99,82,1.729034719,2
564.0078122,9.936351878,10.14681356,12.01412004,11.96098751,0.157511476,0.186134605,9.949857783,9.949857783,0.227581208,0.254469176,34.56993503,35.07089841,10.57279565,8,14,99,82,1.729034719,2
565.0078122,9.938621479,10.13676168,11.97290074,11.9151491,0.15721354,0.188593922,9.933551014,9.933551014,0.227472798,0.254430999,34.56890994,35.06777743,10.58189403,8,14,99,82,1.729034719,2
566.0078122,9.941032004,10.127816,11.94086371,11.88544575,0.15646687,0.191840238,9.923118062,9.923118062,0.227359034,0.254391685,34.56772454,35.06456316,10.58189403,8,14,99,82,1.729034719,2
567.0078122,9.942128553,10.12000213,11.9267425,11.86078556,0.155465066,0.195496264,9.921319439,9.921319439,0.227241377,0.25435167,34.56664406,35.06134394,10.58189403,8,14,99,82,1.729034719,2
568.0078122,9.941552601,10.11730192,11.94843842,11.84248519,0.154533148,0.198973791,9.929605474,9.929605474,0.227121501,0.254315704,34.56560588,35.05818812,10.58189403,8,14,99,82,1.729034719,2
569.0078122,9.939705871,10.11964604,12.00300316,11.83537623,0.153943775,0.201656036,9.941293525,9.941293525,0.227001991,0.254270897,34.56446373,35.05495511,10.58189403,8,14,99,82,1.729034719,2
570.0078122,9.937293638,10.12138137,12.06090209,11.84373235,0.153755666,0.203122604,9.947420371,9.947420371,0.226874971,0.254233349,34.56323937,35.05164694,10.58189403,8,14,99,82,1.729034719,2
571.0078122,9.93488916,10.12000634,12.09662319,11.87029098,0.153792168,0.203296243,9.946099715,9.946099715,0.226754806,0.254197198,34.56198959,35.04838278,10.58189403,8,14,99,82,1.729034719,2
572.0078122,9.933089674,10.1185197,12.10883179,11.90356601,0.153773579,0.202496227,9.939976317,9.939976317,0.226625443,0.25416358,34.56086001,35.04507397,10.58189403,8,14,99,82,1.729034719,2
573.0078122,9.932567896,10.11945555,12.10924692,11.92117325,0.153518583,0.201240458,9.930682916,9.930682916,0.226499948,0.254135391,34.55978305,35.04175337,10.58158468,8,14,99,81,1.729034719,2
574.0078122,9.933612631,10.12338102,12.10284507,11.9140726,0.153074876,0.1998872,9.919948281,9.919948281,0.226373142,0.254106421,34.5587284,35.03860477,10.58158468,8,14,99,81,1.729034719,2
575.0078122,9.935926479,10.13057502,12.0879212,11.89246027,0.152722925,0.198469939,9.911801249,9.911801249,0.226246547,0.254069881,34.55750116,35.0354341,10.58158468,8,14,99,81,1.729034719,2
576.0078122,9.938435611,10.13811466,12.06986186,11.87297646,0.152852663,0.196934507,9.90885122,9.90885122,0.226120776,0.254034136,34.5563744,35.03218081,10.58158468,8,14,99,81,1.729034719,2
577.0078122,9.939579453,10.13996193,12.06209172,11.87197067,0.153718199,0.195509407,9.907788327,9.907788327,0.225990406,0.253999425,34.55533943,35.02892384,10.58158468,8,14,99,81,1.729034719,2
578.0078122,9.938730656,10.13467038,12.07511902,11.89584562,0.155188834,0.194772611,9.904051631,9.904051631,0.225857246,0.253968511,34.55418736,35.02579234,10.58158468,8,14,99,81,1.729034719,2
579.0078122,9.936885887,10.12811604,12.10780742,11.93090871,0.156750663,0.195284887,9.899200001,9.899200001,0.225722945,0.253938575,34.55296996,35.02252639,10.58158468,8,14,99,81,1.729034719,2
580.0078122,9.935630028,10.12602842,12.13791461,11.95235381,0.157842434,0.197091233,9.898622562,9.898622562,0.225591324,0.253912265,34.55186089,35.01942163,10.58158468,8,14,99,81,1.729034719,2
581.0078122,9.93612348,10.1280953,12.13302791,11.95104911,0.158220642,0.199583067,9.902893274,9.902893274,0.22545998,0.253888469,34.55068253,35.01633848,10.57035221,7,13,99,81,1.729034719,2
582.0078122,9.938672141,10.1312543,12.09630811,11.94704784,0.157995043,0.201914287,9.9058214,9.9058214,0.225332173,0.253862568,34.54978056,35.01329002,10.57035221,7,13,99,81,1.729034719,2
583.0078122,9.942794752,10.13508386,12.07369702,11.95712336,0.157394916,0.20354623,9.902258866,9.902258866,0.225199129,0.253837547,34.54862468,35.01025757,10.57035221,7,13,99,81,1.729034719,2
584.0078122,9.947061372,10.13898845,12.08606318,11.96553232,0.156615164,0.204328481,9.897080217,9.897080217,0.225073278,0.253815143,34.54754774,35.00708694,10.57035221,7,13,99,81,1.729034719,2
585.0078122,9.948833558,10.13771203,12.09848231,11.95770606,0.155870327,0.204127909,9.902086393,9.902086393,0.224950277,0.2537921,34.54628402,35.00413702,10.57035221,7,13,99,81,1.729034719,2
586.0078122,9.946398727,10.12827442,12.0801148,11.94904864,0.155447827,0.202648512,9.920309584,9.920309584,0.224825362,0.253771254,34.54517474,35.00124723,10.57035221,7,13,99,81,1.729034719,2
587.0078122,9.940898892,10.11711422,12.04519215,11.95472639,0.155668243,0.199666055,9.940996882,9.940996882,0.224707564,0.253745524,34.54408953,34.99828258,10.57035221,7,13,99,81,1.729034719,2
588.0078122,9.935037525,10.11293579,12.02238841,11.97106984,0.156827868,0.195322402,9.954421965,9.954421965,0.224589818,0.25372315,34.54299714,34.99542412,10.57035221,7,13,99,81,1.729034719,2
589.0078122,9.931148718,10.11735101,12.01860441,11.99601858,0.159085244,0.190210625,9.963130747,9.963130747,0.224472335,0.253701801,34.54189812,34.99240378,10.55790546,7,13,99,81,1.729034719,2
590.0078122,9.930180828,10.12565529,12.0206885,12.02739452,0.162208358,0.185363468,9.973286818,9.973286818,0.224357776,0.253682306,34.5407093,34.98939084,10.55790546,7,13,99,81,1.729034719,2
591.0078122,9.931734751,10.13187291,12.01833294,12.04091147,0.165394376,0.18216014,9.983094451,9.983094451,0.22424841,0.253662594,34.53959681,34.986545,10.55790546,7,13,99,81,1.729034719,2
592.0078122,9.934849567,10.13273033,12.01645153,12.00697255,0.167497647,0.181909459,9.986002021,9.986002021,0.224140635,0.253647883,34.53845221,34.98379787,10.55790546,7,13,99,81,1.729034719,2
593.0078122,9.938107355,10.12946417,12.02378428,11.92656096,0.167625396,0.185100137,9.978724729,9.978724729,0.224039093,0.253634696,34.53733329,34.98101558,10.55790546,7,13,99,81,1.729034719,2
594.0078122,9.939969565,10.12475345,12.03663344,11.82753322,0.165663506,0.190878849,9.963304473,9.963304473,0.223939475,0.253619274,34.53620871,34.97807288,10.55790546,7,13,99,81,1.729034719,2
595.0078122,9.940416784,10.11867629,12.04052505,11.73848883,0.162349385,0.197387127,9.94624167,9.94624167,0.223846942,0.253607308,34.53498407,34.97528699,10.55790546,7,13,99,81,1.729034719,2
596.0078122,9.940881551,10.11027118,12.02255616,11.67919001,0.158868012,0.202815723,9.934781234,9.934781234,0.223756638,0.253591185,34.5337884,34.97245366,10.55702057,7,13,99,81,1.729034719,2
597.0078122,9.941644039,10.10159002,11.98117627,11.65933366,0.156220383,0.206329206,9.930400622,9.930400622,0.22366557,0.253583044,34.53254141,34.96963598,10.55702057,7,13,99,81,1.729034719,2
598.0078122,9.941356608,10.09663494,11.93065339,11.67292217,0.154782425,0.208124027,9.929310333,9.929310333,0.223578742,0.253574222,34.5313728,34.96680533,10.55702057,7,13,99,81,1.729034719,2
599.0078122,9.939647576,10.09694003,11.89248007,11.69712634,0.154237025,0.208896382,9.931054262,9.931054262,0.223494308,0.253561457,34.53016195,34.96399525,10.55702057,7,13,99,81,1.729034719,2
600.0078122,9.937974814,10.10032062,11.87510621,11.70527516,0.153925811,0.209254858,9.938574709,9.938574709,0.223416086,0.253544199,34.52903611,34.96112128,10.55702057,7,13,99,81,1.729034719,2
601.0078122,9.937684281,10.10356022,11.8689919,11.69029445,0.153322113,0.20953586,9.949332184,9.949332184,0.223343045,0.253531877,34.52783371,34.95839401,10.55702057,7,13,99,81,1.729034719,2
602.0078122,9.938675697,10.10675144,11.86982054,11.67515976,0.15232021,0.209928635,9.955667576,9.955667576,0.223274844,0.253510582,34.52659239,34.95560878,10.55702057,7,13,99,81,1.729034719,2
603.0078122,9.939721135,10.11345124,11.88997535,11.69173014,0.151243819,0.210516205,9.951972626,9.951972626,0.223207417,0.253491943,34.52526129,34.95284631,10.55702057,7,13,99,81,1.729034719,2
604.0078122,9.939850654,10.12339952,11.93053271,11.75063035,0.150645976,0.21106326,9.936855518,9.936855518,0.223146656,0.253471891,34.52418571,34.94994563,10.55702057,7,13,99,81,1.729034719,2
605.0078122,9.939393368,10.12932983,11.96559904,11.84025432,0.150968754,0.210890711,9.916441962,9.916441962,0.22309337,0.253451596,34.52308612,34.94698053,10.57409606,7,13,99,81,1.729034719,2
606.0078122,9.938951927,10.12740788,11.98012626,11.94320797,0.15220074,0.209254864,9.904433385,9.904433385,0.223050216,0.253434613,34.52177589,34.94396057,10.57409606,7,13,99,81,1.729034719,2
607.0078122,9.938474086,10.12429654,11.99449693,12.03196254,0.153829245,0.206052487,9.907699063,9.907699063,0.223007685,0.253416422,34.52049911,34.9409746,10.57409606,7,13,99,81,1.729034719,2
608.0078122,9.93793172,10.12710733,12.02872337,12.06740438,0.155211007,0.202104876,9.918430047,9.918430047,0.222966928,0.2534003,34.51925622,34.93804498,10.57409606,7,13,99,81,1.729034719,2
609.0078122,9.937509132,10.13465993,12.07533192,12.03681243,0.156013377,0.19856782,9.928525947,9.928525947,0.222931362,0.253382977,34.51793421,34.93512132,10.57409606,7,13,99,81,1.729034719,2
610.0078122,9.937123384,10.14040876,12.10947557,11.9776727,0.156295998,0.195962241,9.940777994,9.940777994,0.22290377,0.253365655,34.51659849,34.93226305,10.57409606,7,13,99,81,1.729034719,2
611.0078122,9.936621813,10.13887499,12.10674741,11.93806272,0.15625293,0.193881626,9.960590042,9.960590042,0.222886808,0.253349277,34.51525086,34.92933114,10.57409606,7,13,99,81,1.729034719,2
612.0078122,9.936430614,10.13218324,12.07113426,11.93154808,0.155994165,0.191605955,9.984952994,9.984952994,0.222873682,0.253329204,34.5138932,34.92644012,10.57409606,7,13,99,81,1.729034719,2
613.0078122,9.937047923,10.1276107,12.03961071,11.93967531,0.155548311,0.188902779,10.001778,10.001778,0.222866429,0.253301862,34.51258854,34.92356075,10.60329187,7,14,99,81,1.729034719,2
614.0078122,9.937864895,10.12735855,12.03812451,11.9360891,0.155010309,0.186136309,10.00086221,10.00086221,0.222859318,0.25327479,34.51113249,34.92061593,10.60329187,7,14,99,81,1.729034719,2
615.0078122,9.937818169,10.1284704,12.05346759,11.90799821,0.15467905,0.183820424,9.985645466,9.985645466,0.222856641,0.253249042,34.5097584,34.91758866,10.60329187,7,14,99,81,1.729034719,2
616.0078122,9.936638531,10.13013831,12.06303115,11.87105607,0.155029945,0.18238691,9.968698454,9.968698454,0.222858281,0.253219199,34.50851764,34.91450805,10.60329187,7,14,99,81,1.729034719,2
617.0078122,9.934593078,10.13259714,12.06196366,11.85184822,0.156416591,0.182367901,9.959299138,9.959299138,0.222866233,0.253192715,34.50712055,34.91139179,10.60329187,7,14,99,81,1.729034719,2
618.0078122,9.932342089,10.13215539,12.04896064,11.84727028,0.158671749,0.184381224,9.959855905,9.959855905,0.222881575,0.25317277,34.50570449,34.90825561,10.60329187,7,14,99,81,1.729034719,2
619.0078122,9.931190263,10.12571268,12.02504927,11.82875721,0.161051325,0.188537422,9.966257504,9.966257504,0.222895388,0.253147037,34.50430315,34.9051396,10.60329187,7,14,99,81,1.729034719,2
620.0078122,9.932372467,10.11733654,12.01646902,11.78769651,0.162723663,0.193824654,9.967874967,9.967874967,0.222915378,0.253116973,34.50278177,34.90198224,10.62834988,7,14,99,81,1.729034719,2
621.0078122,9.936019252,10.11378526,12.0574323,11.74963419,0.163389901,0.198338611,9.955450382,9.955450382,0.222941655,0.253095128,34.50122867,34.898716,10.62834988,7,14,99,81,1.729034719,2
622.0078122,9.940522138,10.11607429,12.13144623,11.74264465,0.163468799,0.200420549,9.933545588,9.933545588,0.222967082,0.253066927,34.49976638,34.89542798,10.62834988,7,14,99,81,1.729034719,2
623.0078122,9.943503029,10.11903937,12.17243691,11.76540932,0.163826063,0.199752277,9.919244148,9.919244148,0.22300021,0.253042246,34.49818806,34.89212177,10.62834988,7,14,99,81,1.729034719,2
624.0078122,9.944498691,10.11871624,12.15310907,11.79469353,0.165391202,0.197397028,9.924671706,9.924671706,0.223036701,0.253020106,34.49675663,34.88886483,10.62834988,7,14,99,81,1.729034719,2
625.0078122,9.94489283,10.11687976,12.11486393,11.815083,0.168705305,0.194866502,9.945084873,9.945084873,0.223072113,0.252988211,34.49523239,34.88554641,10.62834988,7,14,99,81,1.729034719,2
626.0078122,9.944765174,10.11681028,12.09225862,11.8323063,0.173345939,0.193103376,9.96468038,9.96468038,0.223114881,0.252963351,34.49379407,34.88226368,10.62834988,7,14,99,81,1.729034719,2
627.0078122,9.943106007,10.11904118,12.07481869,11.8627751,0.177701581,0.192199725,9.972281851,9.972281851,0.223159119,0.252935854,34.49234926,34.87889818,10.62834988,7,14,99,81,1.729034719,2
628.0078122,9.940978176,10.12340204,12.05084443,11.91159627,0.179662527,0.191852919,9.972284382,9.972284382,0.223204464,0.252905922,34.49077109,34.87551536,10.63117566,7,14,99,81,1.729034719,2
629.0078122,9.940679515,10.13097538,12.03336517,11.96069147,0.177899616,0.191920588,9.976135987,9.976135987,0.223254971,0.252877338,34.48913446,34.87218332,10.63117566,7,14,99,81,1.729034719,2
630.0078122,9.942632765,10.14112671,12.02896075,11.97816477,0.172698249,0.192450365,9.986165089,9.986165089,0.223301669,0.252844312,34.48762049,34.86876134,10.63117566,7,14,99,81,1.729034719,2
631.0078122,9.945423352,10.14910206,12.02070448,11.94672187,0.165737688,0.19325448,9.996373109,9.996373109,0.223348742,0.252812484,34.48599319,34.86522084,10.63117566,7,14,99,81,1.729034719,2
632.0078122,9.94702645,10.15168232,12.00385738,11.89646779,0.159088697,0.193736375,10.00129733,10.00129733,0.223400051,0.252783392,34.48442717,34.86183746,10.63117566,7,14,99,81,1.729034719,2
633.0078122,9.945895042,10.15207033,12.00206742,11.88859605,0.154171315,0.193371217,9.997719734,9.997719734,0.223450733,0.252754562,34.48266651,34.85835513,10.63117566,7,14,99,81,1.729034719,2
634.0078122,9.942545507,10.15337536,12.02552358,11.94555363,0.151331495,0.19234696,9.985479958,9.985479958,0.223497708,0.25273171,34.48095989,34.85479834,10.63117566,7,14,99,81,1.729034719,2
635.0078122,9.939351594,10.15389702,12.04935488,12.02011215,0.150173171,0.191608086,9.970245702,9.970245702,0.223547904,0.25270792,34.4793358,34.85122261,10.63117566,7,14,99,81,1.729034719,2
636.0078122,9.938444557,10.15177635,12.05308147,12.04475258,0.150165586,0.192199747,9.959902717,9.959902717,0.223595576,0.252685749,34.47758775,34.84762357,10.60087619,7,15,99,81,1.729034719,2
637.0078122,9.940170162,10.14689592,12.05153658,11.99748728,0.150962452,0.194515156,9.955072135,9.955072135,0.223646197,0.252660837,34.4758955,34.84410022,10.60087619,7,15,99,81,1.729034719,2
638.0078122,9.943128748,10.1395572,12.06710473,11.91202845,0.152321727,0.198025171,9.948929073,9.948929073,0.223697801,0.252635877,34.47417441,34.84051894,10.60087619,7,15,99,81,1.729034719,2
639.0078122,9.945400947,10.13286914,12.09548371,11.83509776,0.153986186,0.201623575,9.938554997,9.938554997,0.223749837,0.252609851,34.47249976,34.83697639,10.60087619,7,15,99,81,1.729034719,2
640.0078122,9.945730502,10.13217845,12.11664128,11.79169805,0.155765012,0.204265876,9.930065458,9.930065458,0.223801557,0.252582528,34.47069334,34.83328976,10.60087619,7,15,99,81,1.729034719,2
641.0078122,9.944042539,10.13688762,12.11607744,11.78115137,0.157672451,0.205470495,9.931653859,9.931653859,0.223846972,0.252557434,34.46892701,34.82963841,10.60087619,7,15,99,81,1.729034719,2
642.0078122,9.941281662,10.13918387,12.09314098,11.79628741,0.159801253,0.205428575,9.944223344,9.944223344,0.223893399,0.252533266,34.46710995,34.82599649,10.60087619,7,15,99,81,1.729034719,2
643.0078122,9.938459156,10.13724184,12.06805202,11.84347381,0.161929585,0.204760729,9.960580031,9.960580031,0.223935756,0.252508212,34.46533678,34.82220369,10.60087619,7,15,99,81,1.729034719,2
644.0078122,9.93607812,10.13867136,12.06185829,11.91760405,0.163361051,0.204091955,9.974864471,9.974864471,0.223970794,0.252479311,34.46349453,34.81835712,10.53740076,7,15,100,80,1.729034719,2
645.0078122,9.934838637,10.14588703,12.06469369,11.97922903,0.163400487,0.203599936,9.988906863,9.988906863,0.224008734,0.25245502,34.46177427,34.81466249,10.53740076,7,15,100,80,1.729034719,2
646.0078122,9.935538786,10.1528264,12.05407969,11.99962489,0.162042679,0.202824006,10.00723054,10.00723054,0.224046216,0.252429649,34.46007992,34.81103784,10.53740076,7,15,100,80,1.729034719,2
647.0078122,9.937771304,10.15664022,12.03164681,11.99960325,0.160025729,0.201080041,10.02774531,10.02774531,0.224077251,0.252410865,34.45832658,34.80749031,10.53740076,7,15,100,80,1.729034719,2
648.0078122,9.939954443,10.15903531,12.01367577,12.0174639,0.158149365,0.198252986,10.03892647,10.03892647,0.224106596,0.252392542,34.45654242,34.80381568,10.53740076,7,15,100,80,1.729034719,2
649.0078122,9.940656376,10.158503,12.00499561,12.06155953,0.156670621,0.195104782,10.0288212,10.0288212,0.224127728,0.252372023,34.45465668,34.80011697,10.53740076,7,15,100,80,1.729034719,2
650.0078122,9.939445504,10.15156156,11.99886734,12.10491209,0.155385951,0.192686104,10.00144753,10.00144753,0.22414531,0.25235388,34.45270643,34.79658403,10.53740076,7,15,100,80,1.729034719,2
651.0078122,9.936719516,10.14035636,11.98890095,12.1121173,0.154130663,0.191585744,9.979485535,9.979485535,0.224161908,0.252336128,34.45083168,34.7927531,10.53740076,7,15,100,80,1.729034719,2
652.0078122,9.933452447,10.13255641,11.97627253,12.06989793,0.153007652,0.191730985,9.980215428,9.980215428,0.224170471,0.252319136,34.44904278,34.7889822,10.44980006,7,15,100,80,1.729034719,2
653.0078122,9.931375016,10.13382629,11.96784759,12.00059266,0.152191917,0.192722161,9.996276011,9.996276011,0.224180159,0.252300467,34.44713936,34.78511979,10.44980006,7,15,100,80,1.729034719,2
654.0078122,9.932143475,10.14222467,11.96491114,11.93964391,0.15169254,0.194149547,10.00820031,10.00820031,0.224180896,0.252285826,34.44521242,34.78141036,10.44980006,7,15,100,80,1.729034719,2
655.0078122,9.935706446,10.14921427,11.96160153,11.89585551,0.151400499,0.195656358,10.00512787,10.00512787,0.224175571,0.252270943,34.44321273,34.77751825,10.44980006,7,15,100,80,1.729034719,2
656.0078122,9.940321795,10.14714421,11.95790025,11.84968236,0.151271247,0.196885973,9.990207432,9.990207432,0.224172801,0.252261436,34.44127005,34.77371181,10.44980006,7,15,100,80,1.729034719,2
657.0078122,9.944018574,10.13592091,11.95860562,11.79392484,0.151335424,0.197514876,9.974508896,9.974508896,0.224164819,0.252251143,34.43945243,34.76992398,10.44980006,7,15,100,80,1.729034719,2
658.0078122,9.945365034,10.12121015,11.96157785,11.75139549,0.151540991,0.197409202,9.970593204,9.970593204,0.224150398,0.252241852,34.43742846,34.76629435,10.44980006,7,15,100,80,1.729034719,2
659.0078122,9.944088804,10.10975731,11.96788988,11.74591732,0.151675998,0.196730076,9.983964179,9.983964179,0.224135449,0.252232936,34.43546893,34.76269351,10.44980006,7,15,100,80,1.729034719,2
660.0078122,9.94218698,10.10763647,11.99325382,11.78233819,0.151507977,0.195795066,10.00175453,10.00175453,0.224113791,0.252225977,34.43352421,34.75901096,10.3532855,7,15,100,80,1.729034719,2
661.0078122,9.942281324,10.11689409,12.03880788,11.8521703,0.151012416,0.194805133,10.00270728,10.00270728,0.224088825,0.252222221,34.43139547,34.75527203,10.3532855,7,15,100,80,1.729034719,2
662.0078122,9.944095035,10.13180828,12.06370856,11.93226595,0.150436868,0.193762545,9.983808509,9.983808509,0.224065144,0.252213435,34.42937482,34.75154969,10.3532855,7,15,100,80,1.729034719,2
663.0078122,9.945392703,10.14238113,12.02894951,11.9875582,0.150104236,0.192608568,9.961608687,9.961608687,0.224032879,0.252206374,34.42724343,34.74795678,10.3532855,7,15,100,80,1.729034719,2
664.0078122,9.945341619,10.14331236,11.95552725,11.99347582,0.150189376,0.19131143,9.949612912,9.949612912,0.22400118,0.252198282,34.42513086,34.74439915,10.3532855,7,15,100,80,1.729034719,2
665.0078122,9.944763787,10.13767796,11.89675562,11.95605095,0.15072171,0.189830117,9.950142208,9.950142208,0.223964328,0.252188602,34.42311522,34.74075498,10.3532855,7,15,100,80,1.729034719,2
666.0078122,9.945026595,10.13219455,11.8766487,11.91351129,0.15173098,0.188194904,9.962621479,9.962621479,0.223928433,0.252179341,34.42106886,34.73723909,10.3532855,7,15,100,80,1.729034719,2
667.0078122,9.947069876,10.13276723,11.8936665,11.90972733,0.153227257,0.186650387,9.986066103,9.986066103,0.223892063,0.252173647,34.41899919,34.73371641,10.26743737,7,15,100,80,1.729034719,2
668.0078122,9.950362366,10.14438993,11.9447685,11.95200281,0.154995352,0.185554758,10.01569696,10.01569696,0.223856394,0.252158565,34.41685893,34.73020743,10.26743737,7,15,100,80,1.729034719,2
669.0078122,9.953123786,10.16786952,12.00867417,12.00767228,0.156493071,0.185081908,10.04275633,10.04275633,0.223814487,0.252149456,34.41487045,34.7266348,10.26743737,7,15,100,80,1.729034719,2
670.0078122,9.953698248,10.19343834,12.05367606,12.04595257,0.157044231,0.185095374,10.05864399,10.05864399,0.223769589,0.252140031,34.41276894,34.72311854,10.26743737,7,15,100,80,1.729034719,2
671.0078122,9.951771118,10.20698984,12.08580818,12.06010087,0.156239512,0.185233512,10.05803317,10.05803317,0.223717234,0.252131553,34.41064017,34.71960562,10.26743737,7,15,100,80,1.729034719,2
672.0078122,9.948303392,10.20563621,12.13416973,12.055378,0.154271434,0.184963359,10.03820181,10.03820181,0.223671128,0.252131375,34.40850488,34.71611484,10.26743737,7,15,100,80,1.729034719,2
673.0078122,9.944633654,10.19805799,12.17880893,12.04307493,0.151890877,0.183696282,10.00239625,10.00239625,0.223623882,0.252128711,34.40646628,34.71266138,10.26743737,7,15,100,80,1.729034719,2
674.0078122,9.941802592,10.19134264,12.16856123,12.0371527,0.149948827,0.181185908,9.963481096,9.963481096,0.223577983,0.252124732,34.40439479,34.70918658,10.26743737,7,15,100,80,1.729034719,2
675.0078122,9.940538867,10.18728063,12.1058691,12.04221111,0.148941286,0.177885936,9.936361931,9.936361931,0.223535409,0.252121327,34.40219636,34.7058148,10.21377948,7,15,100,80,1.729034719,2
676.0078122,9.940504218,10.18648334,12.04419653,12.05317252,0.148963684,0.17472738,9.926638301,9.926638301,0.223484539,0.252117221,34.39994111,34.70258078,10.21377948,7,15,100,80,1.729034719,2
677.0078122,9.940524196,10.18766173,12.01158259,12.06178534,0.149947573,0.172507962,9.928739732,9.928739732,0.223438415,0.252111206,34.39776524,34.69928855,10.21377948,7,15,100,80,1.729034719,2
678.0078122,9.939976411,10.18776764,12.0076229,12.068065,0.151747837,0.171444493,9.933219522,9.933219522,0.223394981,0.252098288,34.39552863,34.69618289,10.21377948,7,15,100,80,1.729034719,2
679.0078122,9.938821029,10.18731429,12.03268703,12.09207744,0.154086622,0.171222006,9.933199825,9.933199825,0.223354121,0.252087108,34.39329711,34.6929752,10.21377948,7,15,100,80,1.729034719,2
680.0078122,9.937381914,10.19005197,12.06272808,12.14649441,0.156673266,0.171301074,9.928108942,9.928108942,0.223313078,0.252080421,34.39104255,34.68968716,10.21377948,7,15,100,80,1.729034719,2
681.0078122,9.936364755,10.1962086,12.0571873,12.21415552,0.159463893,0.17122588,9.926388384,9.926388384,0.223269414,0.252069574,34.38887363,34.6864903,10.21377948,7,15,100,80,1.729034719,2
682.0078122,9.936071177,10.20031187,12.01435501,12.27664452,0.162578454,0.170841407,9.938779079,9.938779079,0.223224128,0.25206762,34.38656179,34.68333508,10.21377948,7,15,100,80,1.729034719,2
683.0078122,9.936489144,10.1980361,11.97614252,12.32522521,0.165813118,0.170318603,9.965172951,9.965172951,0.223185873,0.252063066,34.3843498,34.68020115,10.21009485,7,14,100,81,1.729034719,2
684.0078122,9.937786273,10.19176469,11.98344205,12.34380966,0.168444199,0.169901667,9.991344508,9.991344508,0.223143519,0.252053573,34.38203302,34.67699633,10.21009485,7,14,100,81,1.729034719,2
685.0078122,9.93984694,10.18523207,12.03604334,12.32471646,0.169756933,0.169616693,10.00329485,10.00329485,0.22310498,0.252048715,34.37970849,34.67389938,10.21009485,7,14,100,81,1.729034719,2
686.0078122,9.941777252,10.17839895,12.0846655,12.27945419,0.169667766,0.169345895,10.00324296,10.00324296,0.223067576,0.252041347,34.37737914,34.67073418,10.21009485,7,14,100,81,1.729034719,2
687.0078122,9.942602163,10.1707627,12.08090953,12.21869422,0.168626906,0.169164127,10.00012671,10.00012671,0.223030078,0.252029872,34.37507044,34.66764874,10.21009485,7,14,100,81,1.729034719,2
688.0078122,9.942455119,10.16240167,12.03807797,12.15762682,0.167024365,0.169362897,9.99384019,9.99384019,0.222997641,0.252025764,34.37283735,34.66459265,10.21009485,7,14,100,81,1.729034719,2
689.0078122,9.942196136,10.15192549,12.00965363,12.11598682,0.164925024,0.170058641,9.984588225,9.984588225,0.222965012,0.252018579,34.37074239,34.66154487,10.21009485,7,14,100,81,1.729034719,2
690.0078122,9.942429744,10.14116348,12.02050878,12.09388061,0.162352554,0.17098,9.979174643,9.979174643,0.222935928,0.25201552,34.36854414,34.65847631,10.26177655,7,14,100,82,1.729034719,2
691.0078122,9.943064387,10.13790242,12.05397317,12.0802836,0.159582909,0.171783328,9.976663389,9.976663389,0.222910319,0.252013637,34.36634901,34.65548376,10.26177655,7,14,100,82,1.729034719,2
692.0078122,9.943146092,10.1482706,12.0884888,12.075498,0.157159459,0.172462561,9.966257788,9.966257788,0.22288573,0.252005964,34.36413092,34.65236775,10.26177655,7,14,100,82,1.729034719,2
693.0078122,9.941875989,10.1692547,12.11547567,12.08925659,0.155745498,0.173323498,9.945026028,9.945026028,0.222858842,0.251998133,34.36187253,34.64927379,10.26177655,7,14,100,82,1.729034719,2
694.0078122,9.939440243,10.18863395,12.12890421,12.12180048,0.155902461,0.174588477,9.923616706,9.923616706,0.222841085,0.251988978,34.35963974,34.64619649,10.26177655,7,14,100,82,1.729034719,2
695.0078122,9.936482161,10.19424332,12.12598915,12.15582981,0.157742996,0.17610686,9.911045437,9.911045437,0.22281845,0.251980195,34.35726078,34.64311492,10.26177655,7,14,100,82,1.729034719,2
696.0078122,9.933690844,10.18541732,12.1208865,12.17874198,0.160619755,0.177472626,9.906606478,9.906606478,0.222799496,0.251976327,34.35512235,34.64009446,10.26177655,7,14,100,82,1.729034719,2
697.0078122,9.931969349,10.17178172,12.1325837,12.19419513,0.163234881,0.178386774,9.906839059,9.906839059,0.22277883,0.251977468,34.35284103,34.63699175,10.26177655,7,14,100,82,1.729034719,2
698.0078122,9.932185124,10.16197954,12.15780871,12.20364093,0.16430736,0.178843654,9.907829629,9.907829629,0.222754777,0.251980777,34.3505995,34.63386992,10.3543419,7,14,100,83,1.729034719,2
699.0078122,9.934374465,10.15768643,12.17375228,12.20061449,0.163392078,0.178945427,9.903643132,9.903643132,0.222740042,0.251981938,34.34851298,34.63073112,10.3543419,7,14,100,83,1.729034719,2
700.0078122,9.937609584,10.15614723,12.16484547,12.18552729,0.161215474,0.178605241,9.893032399,9.893032399,0.222728182,0.251986361,34.34637555,34.62773556,10.3543419,7,14,100,83,1.729034719,2
701.0078122,9.940322386,10.1534815,12.13485407,12.17153683,0.159242171,0.177524705,9.884194106,9.884194106,0.222717435,0.251990524,34.34414756,34.62465783,10.3543419,7,14,100,83,1.729034719,2
702.0078122,9.941146424,10.14698075,12.09456147,12.17046352,0.158774909,0.175488786,9.885260023,9.885260023,0.222700677,0.251997719,34.34197926,34.62156269,10.3543419,7,14,100,83,1.729034719,2
703.0078122,9.940473313,10.1388223,12.05377286,12.17991411,0.160205901,0.172651269,9.894017824,9.894017824,0.222691992,0.252010692,34.33981009,34.61854946,10.3543419,7,14,100,83,1.729034719,2
704.0078122,9.940081858,10.13476396,12.02656723,12.18918663,0.162870367,0.169566786,9.90175515,9.90175515,0.222687056,0.252024923,34.33773327,34.61560928,10.3543419,7,14,100,83,1.729034719,2
705.0078122,9.940759045,10.1365301,12.0255846,12.18988192,0.165511407,0.16693176,9.903244433,9.903244433,0.222684786,0.252040346,34.33560505,34.61236234,10.45357142,7,14,100,84,1.729034719,2
706.0078122,9.94163747,10.14028249,12.04748412,12.17962804,0.16704856,0.165252211,9.899524928,9.899524928,0.222790321,0.252058691,34.33351297,34.60912191,10.45357142,7,14,100,84,1.729034719,2
707.0078122,9.941691045,10.14186636,12.07281352,12.15982164,0.167165011,0.164637862,9.895150139,9.895150139,0.22290383,0.252069094,34.33156653,34.60568585,10.45357142,7,14,100,84,1.729034719,2
708.0078122,9.940824569,10.14023476,12.08310803,12.138072,0.166299075,0.164871524,9.896338499,9.896338499,0.222978759,0.252082234,34.32980017,34.60235657,10.45357142,7,14,100,84,1.729034719,2
709.0078122,9.939509575,10.13824742,12.07930651,12.13378234,0.165062868,0.165706556,9.907136598,9.907136598,0.223009602,0.252099917,34.32806476,34.59913914,10.45357142,7,14,100,84,1.729034719,2
710.0078122,9.937969718,10.13983403,12.08214064,12.15830099,0.163671602,0.167082459,9.923862485,9.923862485,0.223048521,0.252115002,34.32640396,34.59584244,10.45357142,7,14,100,84,1.729034719,2
711.0078122,9.936219325,10.14514802,12.10876657,12.19059356,0.161934315,0.168989421,9.936771814,9.936771814,0.223094241,0.252132731,34.32451813,34.59262622,10.45357142,7,14,100,84,1.729034719,2
712.0078122,9.934582861,10.14951057,12.14588366,12.19431962,0.15969242,0.171143753,9.940468405,9.940468405,0.223144006,0.252153224,34.32251744,34.58928384,10.45357142,7,14,100,84,1.729034719,2
713.0078122,9.933734839,10.1472562,12.15786094,12.15556392,0.157152674,0.172912198,9.938813346,9.938813346,0.223193789,0.252172555,34.32067252,34.58596189,10.51766791,7,14,100,84,1.729034719,2
714.0078122,9.934114465,10.13826474,12.1306814,12.09608711,0.1548007,0.173639383,9.937807216,9.937807216,0.223252128,0.252193214,34.31877493,34.58266606,10.51766791,7,14,100,84,1.729034719,2
715.0078122,9.935347624,10.12988901,12.0879666,12.05276178,0.153071361,0.173067772,9.939356324,9.939356324,0.223315674,0.252215184,34.31697229,34.579348,10.51766791,7,14,100,84,1.729034719,2
716.0078122,9.936262089,10.12882798,12.05672568,12.04722018,0.152144416,0.17146456,9.943688471,9.943688471,0.223381329,0.252232621,34.31517148,34.57610336,10.51766791,7,14,100,84,1.729034719,2
717.0078122,9.935646736,10.13357244,12.04754607,12.07862479,0.152040384,0.169409957,9.952572148,9.952572148,0.22345595,0.252250484,34.31328974,34.57265775,10.51766791,7,14,100,84,1.729034719,2
718.0078122,9.933536457,10.13927951,12.07061351,12.13771478,0.152756402,0.167459049,9.967184632,9.967184632,0.223529042,0.252272909,34.31148224,34.56922382,10.51766791,7,14,100,84,1.729034719,2
719.0078122,9.93110211,10.14540832,12.12946133,12.20929874,0.154203498,0.165942171,9.984720744,9.984720744,0.223607377,0.252297189,34.3096035,34.56577339,10.51766791,7,14,100,84,1.729034719,2
720.0078122,9.929061048,10.15334714,12.19180803,12.26622233,0.156023738,0.165000401,9.998949637,9.998949637,0.223684452,0.252323191,34.30765572,34.56239619,10.51766791,7,14,100,84,1.390831331,1
721.0078122,9.927671497,10.16134751,12.20926558,12.28469098,0.157608893,0.16470583,10.00397748,10.00397748,0.223763762,0.252350862,34.30597023,34.55904471,10.28122199,11,14,99,84,1.390831331,1
722.0078122,9.927735362,10.16587182,12.17490478,12.26856134,0.158404698,0.165019147,9.996327874,9.996327874,0.223840948,0.252374645,34.30409478,34.55563845,10.28122199,11,14,99,84,1.390831331,1
723.0078122,9.929688057,10.16390461,12.11420649,12.23244314,0.158239392,0.16558655,9.976171879,9.976171879,0.223922681,0.252400932,34.30238866,34.55233319,10.28122199,11,14,99,84,1.390831331,1
724.0078122,9.932166574,10.15251933,12.00952204,12.14219831,0.157390764,0.165698919,9.95293449,9.95293449,0.224005735,0.252431334,34.30059668,34.54903879,10.28122199,11,14,99,84,1.390831331,1
725.0078122,9.932885995,10.13001449,11.80153456,11.92238731,0.156321064,0.164639631,9.94660843,9.94660843,0.224088635,0.252461133,34.29865786,34.54582368,10.28122199,11,14,99,84,1.390831331,1
726.0078122,9.931085424,10.10010589,11.50085207,11.58278399,0.155222767,0.162191472,9.968994802,9.968994802,0.224164503,0.252485839,34.296713,34.54248366,10.28122199,11,14,99,84,1.390831331,1
727.0078122,9.928035928,10.07180999,11.22033103,11.26726954,0.153717186,0.158825471,10.00505578,10.00505578,0.224236194,0.252508466,34.29488713,34.53913554,10.23272583,11,14,99,84,1.390831331,1
728.0078122,9.925288478,10.05001832,11.04631645,11.09215498,0.151088269,0.155359898,10.03119408,10.03119408,0.224307344,0.252525485,34.29304001,34.53571134,10.23272583,11,14,99,84,1.390831331,1
729.0078122,9.923713902,10.03194359,10.95744762,11.02176727,0.146960573,0.152369652,10.04745952,10.04745952,0.224375341,0.252549311,34.29102485,34.53236111,10.23272583,11,14,99,84,1.390831331,1
730.0078122,9.923166592,10.01668084,10.90147199,10.96909435,0.141804307,0.149955532,10.06709037,10.06709037,0.224444169,0.252573078,34.28905647,34.52913073,10.23272583,11,14,99,84,1.390831331,1
731.0078122,9.922659274,10.00898389,10.87075964,10.91365499,0.136711887,0.148039873,10.0831294,10.0831294,0.224508519,0.252595215,34.28708041,34.52573006,10.23272583,11,14,99,84,1.390831331,1
732.0078122,9.921464163,10.01114328,10.87654077,10.87778291,0.132733137,0.146907612,10.07633355,10.07633355,0.224569495,0.252614828,34.28516876,34.52251738,10.14795788,11,14,99,84,1.390831331,1
733.0078122,9.919831605,10.01750339,10.9030686,10.87287516,0.130327613,0.147434554,10.04631216,10.04631216,0.224622736,0.252636115,34.28299398,34.51923553,10.14795788,11,14,99,84,1.390831331,1
734.0078122,9.919269278,10.01910369,10.91655295,10.89617793,0.129216251,0.150726216,10.01181061,10.01181061,0.224671175,0.252651529,34.28093357,34.51594103,10.14795788,11,14,99,84,1.390831331,1
735.0078122,9.921916468,10.01111206,10.8974737,10.93968798,0.128660859,0.157250685,9.995329264,9.995329264,0.224710756,0.252667167,34.27888968,34.51276311,10.14795788,11,14,99,84,1.390831331,1
736.0078122,9.928162991,9.995685707,10.85345987,10.99070335,0.128035227,0.16596772,10.01770377,10.01770377,0.224748389,0.252680142,34.27677575,34.50953611,10.14795788,11,14,99,84,1.390831331,1
737.0078122,9.934767077,9.981383315,10.81616984,11.03635238,0.127241471,0.174341741,10.07584667,10.07584667,0.224774799,0.252691846,34.27460728,34.50637885,10.0444774,11,15,99,83,1.390831331,1
738.0078122,9.937546937,9.978560858,10.81935298,11.06741489,0.126536608,0.179722779,10.12584942,10.12584942,0.224794791,0.252704199,34.27238442,34.50310811,10.0444774,11,15,99,83,1.390831331,1
739.0078122,9.935858714,9.990162997,10.86413135,11.07724635,0.126020704,0.181148701,10.13006444,10.13006444,0.224807075,0.252716939,34.27028517,34.49990282,10.0444774,11,15,99,83,1.390831331,1
740.0078122,9.932439143,10.00736009,10.91528762,11.06285225,0.125540156,0.179824269,10.10171808,10.10171808,0.224814338,0.25271277,34.26804627,34.4968003,10.0444774,11,15,99,83,1.390831331,1
741.0078122,9.929483409,10.01749695,10.93658304,11.03022277,0.125149063,0.177820638,10.07239734,10.07239734,0.224813873,0.252704655,34.2657664,34.49372998,9.934978269,11,14,99,83,1.390831331,1
742.0078122,9.926448962,10.01611531,10.91872031,10.99701529,0.125337054,0.176380386,10.05227989,10.05227989,0.224812583,0.25269874,34.26334279,34.49057894,9.934978269,11,14,99,83,1.390831331,1
743.0078122,9.922116052,10.00828798,10.87697705,10.97875951,0.126520683,0.175353509,10.03996368,10.03996368,0.224802387,0.252692776,34.260904,34.48752779,9.934978269,11,14,99,83,1.390831331,1
744.0078122,9.917620037,10.00083938,10.84153587,10.96905395,0.128445319,0.173841047,10.03671435,10.03671435,0.224789662,0.252690105,34.25842235,34.48446598,9.934978269,11,14,99,83,1.390831331,1
745.0078122,9.915898075,9.998625065,10.85159743,10.95147981,0.130379392,0.171169213,10.03418972,10.03418972,0.224775823,0.252692137,34.25590081,34.48127082,9.821721509,11,14,99,83,1.390831331,1
746.0078122,9.917830877,10.00274499,10.92058908,10.93054003,0.131883404,0.167354615,10.01552432,10.01552432,0.224751537,0.252687728,34.25334248,34.4782148,9.821721509,11,14,99,83,1.390831331,1
747.0078122,9.920738416,10.007415,10.99567493,10.92639095,0.133214575,0.163011543,9.98291571,9.98291571,0.224724484,0.252689209,34.25075059,34.47518814,9.821721509,11,14,99,83,1.390831331,1
748.0078122,9.921828527,10.00600057,11.00805616,10.94587858,0.13499717,0.159153961,9.959335436,9.959335436,0.224694792,0.25268555,34.24803362,34.47217148,9.821721509,11,14,99,83,1.390831331,1
749.0078122,9.920983215,10.00027115,10.96323474,10.97343492,0.137601493,0.157015082,9.955604546,9.955604546,0.224657731,0.252682371,34.24527362,34.46916792,9.821721509,11,14,99,83,1.390831331,1
750.0078122,9.919526951,9.996119919,10.92102117,10.98499659,0.140735935,0.157559045,9.956892249,9.956892249,0.224624972,0.252680005,34.24268669,34.46633834,9.821721509,11,14,99,83,1.390831331,1
751.0078122,9.918521723,9.993846272,10.90702849,10.97062329,0.143496635,0.160746041,9.946100234,9.946100234,0.224583038,0.252675828,34.23987525,34.46355197,9.821721509,11,14,99,83,1.390831331,1
752.0078122,9.918829729,9.988795139,10.89142784,10.93691106,0.144948076,0.165285867,9.923689731,9.923689731,0.224539656,0.252669788,34.23724402,34.46079101,9.701719048,10,14,99,83,1.390831331,1
753.0078122,9.920791627,9.979081477,10.84836718,10.89083553,0.144850805,0.169363279,9.899410427,9.899410427,0.224497774,0.252667471,34.23446804,34.45806013,9.701719048,10,14,99,83,1.390831331,1
754.0078122,9.923342664,9.968217126,10.79693124,10.84079874,0.143791644,0.171761472,9.878182992,9.878182992,0.224450936,0.252660491,34.23176056,34.45526975,9.701719048,10,14,99,83,1.390831331,1
755.0078122,9.925080426,9.959645079,10.76174134,10.80303629,0.142604526,0.17232881,9.8603646,9.8603646,0.224405518,0.252649969,34.229032,34.45250715,9.701719048,10,14,99,83,1.390831331,1
756.0078122,9.925674617,9.952907259,10.73594886,10.78680678,0.141881771,0.171508579,9.846761027,9.846761027,0.224361677,0.252642216,34.22620337,34.44968166,9.701719048,10,14,99,83,1.390831331,1
757.0078122,9.925345149,9.947001563,10.70590718,10.78343534,0.141998664,0.169775248,9.839348567,9.839348567,0.224312925,0.252629202,34.22343382,34.44703735,9.701719048,10,14,99,83,1.390831331,1
758.0078122,9.924646162,9.943256827,10.67723313,10.77995737,0.143170079,0.167576307,9.839938788,9.839938788,0.224267332,0.252618126,34.22060456,34.44434871,9.701719048,10,14,99,83,1.390831331,1
759.0078122,9.924805183,9.943279154,10.66645528,10.77381349,0.145106808,0.165520115,9.847581423,9.847581423,0.224222385,0.252610678,34.21775149,34.44168008,9.578272425,9,14,99,82,1.390831331,1
760.0078122,9.926194533,9.946521011,10.67792975,10.76950577,0.146775109,0.164282859,9.859255636,9.859255636,0.224172038,0.252603654,34.21499281,34.43906508,9.578272425,9,14,99,82,1.390831331,1
761.0078122,9.927457969,9.950920456,10.69590194,10.76879538,0.14696118,0.164256864,9.872620694,9.872620694,0.224127464,0.252596296,34.21221676,34.43644445,9.578272425,9,14,99,82,1.390831331,1
762.0078122,9.927485896,9.955337276,10.70564076,10.76898261,0.145346848,0.165319059,9.884944758,9.884944758,0.224086127,0.252587495,34.20943757,34.43387528,9.578272425,9,14,99,82,1.390831331,1
763.0078122,9.926553712,9.960158324,10.71012773,10.76771808,0.142951867,0.166907114,9.896626483,9.896626483,0.224040204,0.252578404,34.20649417,34.43119648,9.578272425,9,14,99,82,1.390831331,1
764.0078122,9.925061821,9.965910942,10.71811503,10.77426045,0.141305974,0.168319385,9.914116027,9.914116027,0.223998494,0.252570573,34.20357014,34.4285347,9.578272425,9,14,99,82,1.390831331,1
765.0078122,9.922497716,9.97228805,10.73007371,10.80993583,0.14106754,0.169100941,9.935510429,9.935510429,0.223952458,0.252565265,34.20080422,34.42598648,9.578272425,9,14,99,82,1.390831331,1
766.0078122,9.918503501,9.977582993,10.73733222,10.87442488,0.141463992,0.169339122,9.944246992,9.944246992,0.223826018,0.252559409,34.19804351,34.42352191,9.467004267,9,14,99,82,1.390831331,1
767.0078122,9.914697152,9.98001204,10.73341478,10.92716649,0.141095642,0.169601815,9.932930311,9.932930311,0.223696707,0.25255793,34.19518675,34.42104775,9.467004267,9,14,99,82,1.390831331,1
768.0078122,9.913739893,9.980646622,10.7285821,10.93296888,0.139214579,0.170410174,9.913834161,9.913834161,0.223616665,0.252561382,34.1920936,34.4185899,9.467004267,9,14,99,82,1.390831331,1
769.0078122,9.916070107,9.9812118,10.73976568,10.90340091,0.136199055,0.171574585,9.896862102,9.896862102,0.223602435,0.252561606,34.18919635,34.41613099,9.467004267,9,14,99,82,1.390831331,1
770.0078122,9.91883333,9.97952154,10.76522618,10.87341147,0.133056584,0.171986236,9.881884989,9.881884989,0.223583534,0.252565806,34.18623425,34.41368385,9.467004267,9,14,99,82,1.390831331,1
771.0078122,9.919138383,9.973458177,10.78477934,10.86056051,0.130769365,0.170301382,9.871333049,9.871333049,0.223561525,0.252570645,34.18358447,34.41142299,9.467004267,9,14,99,82,1.390831331,1
772.0078122,9.917644842,9.967530327,10.78887027,10.85606199,0.130092947,0.166198442,9.870041939,9.870041939,0.223537796,0.252576463,34.18096774,34.40907538,9.467004267,9,14,99,82,1.390831331,1
773.0078122,9.916861444,9.968236319,10.78958969,10.84330311,0.131440507,0.161080686,9.877342942,9.877342942,0.22350949,0.252577392,34.17827457,34.40679426,9.390416442,8,13,99,82,1.390831331,1
774.0078122,9.917542628,9.975157157,10.79472712,10.81756283,0.134447256,0.157279832,9.886361097,9.886361097,0.223476192,0.252582923,34.17568642,34.404454,9.390416442,8,13,99,82,1.390831331,1
775.0078122,9.919111321,9.982349547,10.79885821,10.78806542,0.13769659,0.156298935,9.889342277,9.889342277,0.22344375,0.252587754,34.17311348,34.40231284,9.390416442,8,13,99,82,1.390831331,1
776.0078122,9.921376272,9.98564501,10.80483669,10.76716929,0.139346363,0.157779501,9.884141509,9.884141509,0.223406252,0.25259736,34.17055998,34.40001452,9.390416442,8,13,99,82,1.390831331,1
777.0078122,9.924258887,9.985683195,10.81849411,10.75720255,0.138382727,0.160145376,9.874888318,9.874888318,0.223364864,0.252612745,34.16805247,34.39784248,9.390416442,8,13,99,82,1.390831331,1
778.0078122,9.9267959,9.985667927,10.82299494,10.74716143,0.135335587,0.162127182,9.868046494,9.868046494,0.223324183,0.252631655,34.16560166,34.39560763,9.390416442,8,13,99,82,1.390831331,1
779.0078122,9.92772184,9.986653744,10.79857345,10.73202921,0.131806143,0.163657502,9.86789886,9.86789886,0.223281182,0.252641575,34.16315074,34.39336024,9.390416442,8,13,99,82,1.390831331,1
780.0078122,9.927161465,9.986393727,10.76316055,10.72528593,0.129369415,0.165525872,9.872719236,9.872719236,0.223236965,0.252656771,34.16076566,34.39112441,9.366608923,8,13,99,82,1.390831331,1
781.0078122,9.926316726,9.983782379,10.75351763,10.73724177,0.128809965,0.168424484,9.875723168,9.875723168,0.223194408,0.252670278,34.15827376,34.38890166,9.366608923,8,13,99,82,1.390831331,1
782.0078122,9.925878502,9.980707452,10.77687831,10.75588924,0.130035102,0.172337455,9.870470246,9.870470246,0.223143891,0.252684903,34.15594796,34.38675724,9.366608923,8,13,99,82,1.390831331,1
783.0078122,9.925869172,9.977925141,10.81006582,10.75879876,0.132390755,0.176601522,9.856197449,9.856197449,0.223093799,0.252704673,34.15352092,34.38457803,9.366608923,8,13,99,82,1.390831331,1
784.0078122,9.926324081,9.97340784,10.82814633,10.73439953,0.135058872,0.180502295,9.839546247,9.839546247,0.223038926,0.252719906,34.15126511,34.38244217,9.366608923,8,13,99,82,1.390831331,1
785.0078122,9.927433842,9.966752267,10.81412901,10.69256665,0.137418104,0.183874069,9.830308525,9.830308525,0.222981399,0.252738991,34.14899638,34.38028538,9.366608923,8,13,99,82,1.390831331,1
786.0078122,9.929185808,9.961108621,10.76003047,10.65674227,0.139243834,0.187149889,9.833674684,9.833674684,0.222931092,0.252763545,34.14680982,34.37812072,9.366608923,8,13,99,82,1.390831331,1
787.0078122,9.930738417,9.958737667,10.67853743,10.64126331,0.140683463,0.190715607,9.847197616,9.847197616,0.222879817,0.252784659,34.14457004,34.37607588,9.366608923,8,13,99,82,1.390831331,1
788.0078122,9.930591769,9.95884296,10.60616546,10.64227797,0.14212122,0.194212875,9.863682246,9.863682246,0.222827799,0.252811804,34.14229037,34.37401693,9.401147292,8,13,99,82,1.390831331,1
789.0078122,9.92835448,9.960864456,10.57819862,10.65505315,0.144018411,0.196628586,9.875763333,9.875763333,0.222776477,0.252840967,34.140035,34.37197833,9.401147292,8,13,99,82,1.390831331,1
790.0078122,9.925100592,9.965169883,10.59046725,10.68650666,0.146596874,0.197140722,9.881023538,9.881023538,0.222721927,0.252865592,34.1379104,34.36978246,9.401147292,8,13,99,82,1.390831331,1
791.0078122,9.921329867,9.970814526,10.60132453,10.74060487,0.149385798,0.195763799,9.881965021,9.881965021,0.222668859,0.252892471,34.13587537,34.36769314,9.401147292,8,13,99,82,1.390831331,1
792.0078122,9.917132276,9.976492291,10.58439501,10.80315885,0.151126902,0.19311232,9.881335445,9.881335445,0.222616246,0.252919203,34.13378441,34.36550438,9.401147292,8,13,99,82,1.390831331,1
793.0078122,9.914330293,9.981505783,10.55337239,10.84530466,0.150432805,0.189720627,9.879724166,9.879724166,0.222564538,0.252945483,34.13181615,34.36333951,9.401147292,8,13,99,82,1.390831331,1
794.0078122,9.915185214,9.984089428,10.52739629,10.84109233,0.146777073,0.185774871,9.875441184,9.875441184,0.222519243,0.252977185,34.1298555,34.3611628,9.401147292,8,13,99,82,1.390831331,1
795.0078122,9.918912203,9.981581464,10.50637545,10.79332016,0.14091155,0.181376668,9.866997479,9.866997479,0.222469374,0.253002747,34.12785205,34.35910981,9.485544091,8,13,99,82,1.390831331,1
796.0078122,9.922257725,9.973887427,10.48881272,10.73555442,0.134422805,0.176882329,9.856731561,9.856731561,0.222422336,0.253033205,34.12584747,34.35695098,9.485544091,8,13,99,82,1.390831331,1
797.0078122,9.923300573,9.964916921,10.48770194,10.70313754,0.128798651,0.172880242,9.849802139,9.849802139,0.222378408,0.253056786,34.12381282,34.35479405,9.485544091,8,13,99,82,1.390831331,1
798.0078122,9.922712206,9.958489921,10.51408537,10.71278891,0.124774226,0.169967583,9.849105948,9.849105948,0.222336566,0.253080446,34.12198864,34.35279843,9.485544091,8,13,99,82,1.390831331,1
799.0078122,9.921864834,9.954882282,10.55704568,10.7556552,0.122309556,0.168536595,9.853138844,9.853138844,0.222295499,0.253102379,34.12004619,34.3508319,9.485544091,8,13,99,82,1.390831331,1
800.0078122,9.921417311,9.95276272,10.59519812,10.79940706,0.121010014,0.168672351,9.857812066,9.857812066,0.222253997,0.253127932,34.11825253,34.34878108,9.485544091,8,13,99,82,1.390831331,1
801.0078122,9.921833169,9.952244011,10.62426852,10.81337607,0.120532649,0.170144784,9.858977931,9.858977931,0.222222126,0.253162733,34.11644546,34.34673201,9.485544091,8,13,99,82,1.390831331,1
802.0078122,9.923272717,9.954013016,10.6579681,10.79397973,0.120696325,0.172455509,9.856249498,9.856249498,0.222187454,0.253188481,34.11457468,34.34475073,9.485544091,8,13,99,82,1.390831331,1
803.0078122,9.924651597,9.9567062,10.69974888,10.76126009,0.121362674,0.17494711,9.853520747,9.853520747,0.222151351,0.253214166,34.11278815,34.34281907,9.600610659,8,14,99,82,1.390831331,1
804.0078122,9.924770176,9.958307388,10.73428331,10.73967048,0.122340802,0.177002519,9.853453973,9.853453973,0.222121234,0.253236516,34.11097071,34.34094969,9.600610659,8,14,99,82,1.390831331,1
805.0078122,9.923560388,9.959152961,10.75006536,10.74196225,0.123447958,0.1782574,9.858317265,9.858317265,0.222092914,0.253257079,34.10909447,34.33908676,9.600610659,8,14,99,82,1.390831331,1
806.0078122,9.921286086,9.960362757,10.74903049,10.76310347,0.12461909,0.17865578,9.877947856,9.877947856,0.222069197,0.253277255,34.1072756,34.33708565,9.600610659,8,14,99,82,1.390831331,1
807.0078122,9.918663588,9.961674759,10.73569208,10.79221452,0.125923674,0.178306174,9.919187718,9.919187718,0.222050501,0.253295201,34.1054519,34.33506157,9.600610659,8,14,99,82,1.390831331,1
808.0078122,9.917380403,9.963253866,10.70808449,10.82450173,0.1274968,0.177330842,9.961405839,9.961405839,0.222032148,0.253309316,34.10362488,34.33313334,9.600610659,8,14,99,82,1.390831331,1
809.0078122,9.918323459,9.966696229,10.65769624,10.85495558,0.129400121,0.175918652,9.970126925,9.970126925,0.222015293,0.253326288,34.10183787,34.33122026,9.600610659,8,14,99,82,1.390831331,1
810.0078122,9.920393692,9.972823894,10.58620576,10.87290876,0.131449742,0.174452824,9.942935516,9.942935516,0.222001224,0.253339356,34.10000399,34.32935577,9.721779042,8,14,99,82,1.390831331,1
811.0078122,9.922247419,9.980420899,10.5219423,10.86879269,0.133134212,0.173371983,9.909777965,9.909777965,0.221983848,0.253349677,34.09821379,34.32741684,9.721779042,8,14,99,82,1.390831331,1
812.0078122,9.923908045,9.986575746,10.49896238,10.84147758,0.133869979,0.172731181,9.888524821,9.888524821,0.221975541,0.253364224,34.09635798,34.32541742,9.721779042,8,14,99,82,1.390831331,1
813.0078122,9.925797019,9.988538678,10.52061905,10.80276991,0.133516639,0.171929465,9.874433347,9.874433347,0.221966275,0.25337014,34.09444153,34.32334799,9.721779042,8,14,99,82,1.390831331,1
814.0078122,9.92699222,9.987391734,10.56099205,10.77502701,0.132599429,0.170038182,9.865745085,9.865745085,0.22195557,0.253379942,34.0924383,34.32145016,9.721779042,8,14,99,82,1.390831331,1
815.0078122,9.925988329,9.986239219,10.59711585,10.77654086,0.131855914,0.166604967,9.867784226,9.867784226,0.221950331,0.253384595,34.09052178,34.3195902,9.721779042,8,14,99,82,1.390831331,1
816.0078122,9.923640394,9.983705038,10.62690095,10.80493013,0.131561973,0.16231988,9.875590347,9.875590347,0.221941749,0.253385386,34.08856421,34.31790527,9.721779042,8,14,99,82,1.390831331,1
817.0078122,9.923502817,9.976169289,10.65591632,10.83675889,0.131453649,0.158926942,9.874836378,9.874836378,0.221936454,0.25338698,34.08648932,34.3161055,9.823658151,9,15,99,83,1.390831331,1
818.0078122,9.927297249,9.9655091,10.6747653,10.85282985,0.131312954,0.158319141,9.861601095,9.861601095,0.221935547,0.253386714,34.08447662,34.31446349,9.823658151,9,15,99,83,1.390831331,1
819.0078122,9.931795967,9.957417191,10.66620755,10.85831467,0.13143737,0.161468871,9.849681439,9.849681439,0.22193012,0.253380374,34.08234963,34.31277541,9.823658151,9,15,99,83,1.390831331,1
820.0078122,9.932805129,9.955185461,10.63579693,10.86506781,0.132419904,0.167950085,9.855564984,9.855564984,0.221928613,0.253377935,34.0802369,34.31104109,9.823658151,9,15,99,83,1.390831331,1
821.0078122,9.930158804,9.95915274,10.61194872,10.87119969,0.134503941,0.176146352,9.881322225,9.881322225,0.221926744,0.25336677,34.07818323,34.30937749,9.823658151,9,15,99,83,1.390831331,1
822.0078122,9.926510027,9.96735258,10.6147273,10.87254817,0.137135346,0.183771896,9.912269204,9.912269204,0.22192012,0.253355517,34.07610108,34.30766317,9.823658151,9,15,99,83,1.390831331,1
823.0078122,9.923656376,9.975960732,10.64,10.875472,0.139030978,0.188406998,9.929720356,9.929720356,0.221920971,0.253345332,34.07407731,34.30615,9.882258006,9,16,99,83,1.390831331,1
824.0078122,9.922001492,9.983074542,10.67526646,10.88680713,0.13888414,0.188403056,9.928815207,9.928815207,0.221920574,0.253329003,34.0720094,34.30467963,9.882258006,9,16,99,83,1.390831331,1
825.0078122,9.921570444,9.990460882,10.71829802,10.90440743,0.136373352,0.183742947,9.919605914,9.919605914,0.221920359,0.253315209,34.06979082,34.30303285,9.882258006,9,16,99,83,1.390831331,1
826.0078122,9.921665469,9.998623996,10.76466325,10.92569575,0.132621521,0.176063247,9.909571641,9.909571641,0.221925745,0.253299645,34.06754942,34.30147078,9.882258006,9,16,99,83,1.390831331,1
827.0078122,9.92062799,10.00333211,10.79007141,10.95204312,0.129428584,0.167609323,9.89917796,9.89917796,0.221923018,0.253280057,34.06528716,34.30000075,9.882258006,9,16,99,83,1.390831331,1
828.0078122,9.917971087,10.00136152,10.77316988,10.97323588,0.127882785,0.160027446,9.892671453,9.892671453,0.221922143,0.253260755,34.06308978,34.29858104,9.882258006,9,16,99,83,1.390831331,1
829.0078122,9.915880066,9.996749578,10.73161803,10.96884352,0.127728936,0.153919616,9.895685757,9.895685757,0.221921888,0.253239157,34.06078258,34.29708589,9.877067431,9,16,99,82,1.390831331,1
830.0078122,9.916530593,9.997612981,10.71528244,10.94188214,0.127963821,0.14916248,9.904446369,9.904446369,0.221919379,0.253215203,34.0585844,34.29550589,9.877067431,9,16,99,82,1.390831331,1
831.0078122,9.919323079,10.00836227,10.75778707,10.92118769,0.127840104,0.145440595,9.908819881,9.908819881,0.221915721,0.253193162,34.05608506,34.29382923,9.877067431,9,16,99,82,1.390831331,1
832.0078122,9.922243854,10.025358,10.84422241,10.91873768,0.127358351,0.142600567,9.904159325,9.904159325,0.221911194,0.253168918,34.05378862,34.2923539,9.877067431,9,16,99,82,1.390831331,1
833.0078122,9.924305615,10.0400022,10.93098034,10.91980461,0.127039367,0.140761513,9.893176257,9.893176257,0.221907125,0.253145477,34.05147722,34.2908955,9.877067431,9,16,99,82,1.390831331,1
834.0078122,9.925530486,10.04590644,10.98152797,10.91364764,0.127300021,0.140248467,9.879811262,9.879811262,0.221904769,0.253126973,34.04913216,34.28943559,9.877067431,9,16,99,82,1.390831331,1
835.0078122,9.925645319,10.04114675,10.98530776,10.90453021,0.127971086,0.141336755,9.869221127,9.869221127,0.221891126,0.253102604,34.04668294,34.28779631,9.797525607,9,16,99,82,1.390831331,1
836.0078122,9.924230767,10.02739578,10.96537002,10.89776347,0.128403151,0.143827531,9.86847881,9.86847881,0.22187721,0.253082472,34.04416701,34.28613877,9.797525607,9,16,99,82,1.390831331,1
837.0078122,9.921522421,10.00960045,10.95560314,10.88835972,0.128072751,0.14679341,9.880204219,9.880204219,0.221868835,0.253063009,34.04170233,34.28459546,9.797525607,9,16,99,82,1.390831331,1
838.0078122,9.918698014,9.993306669,10.95939025,10.86951971,0.12703876,0.14898746,9.895908071,9.895908071,0.22185375,0.253034531,34.03912245,34.28308048,9.797525607,9,16,99,82,1.390831331,1
839.0078122,9.917723449,9.981986146,10.95420268,10.85004608,0.125801653,0.149779629,9.901290133,9.901290133,0.221839129,0.253011134,34.03666205,34.28147384,9.797525607,9,16,99,82,1.390831331,1
840.0078122,9.919122113,9.975704094,10.92559588,10.84552256,0.124841412,0.149745951,9.893467476,9.893467476,0.221825028,0.252987232,34.03416829,34.2799415,9.65310929,9,16,99,83,1.390831331,1
841.0078122,9.920862668,9.971808967,10.87979239,10.85976743,0.124376443,0.150234714,9.884443157,9.884443157,0.221804553,0.252963033,34.03175903,34.27840019,9.65310929,9,16,99,83,1.390831331,1
842.0078122,9.921475454,9.96894897,10.83984911,10.88662158,0.124444474,0.152252416,9.883984484,9.883984484,0.221787935,0.252945418,34.02928363,34.27675624,9.65310929,9,16,99,83,1.390831331,1
843.0078122,9.921446516,9.968269122,10.82678775,10.91017874,0.124988885,0.15565056,9.890885563,9.890885563,0.221770877,0.2529262,34.02695319,34.27518725,9.65310929,9,16,99,83,1.390831331,1
844.0078122,9.92114593,9.970233338,10.83861219,10.9099931,0.125787191,0.159260413,9.900418832,9.900418832,0.221749112,0.252911415,34.0245025,34.27348442,9.65310929,9,16,99,83,1.390831331,1
845.0078122,9.920672934,9.973803922,10.85658563,10.88691912,0.126431546,0.161793262,9.907959688,9.907959688,0.22172999,0.252901401,34.02220641,34.27178887,9.65310929,9,16,99,83,1.390831331,1
846.0078122,9.920564982,9.977635359,10.86537102,10.86337632,0.12655305,0.162724159,9.907937482,9.907937482,0.221712807,0.252887989,34.01977726,34.27014996,9.65310929,9,16,99,83,1.390831331,1
847.0078122,9.920731511,9.979958895,10.86627354,10.85268984,0.126121689,0.16246611,9.898491138,9.898491138,0.221693887,0.25288238,34.01743796,34.2685365,9.47703736,9,16,99,83,1.390831331,1
848.0078122,9.920868077,9.979511944,10.87449863,10.85156416,0.125499552,0.161834882,9.884496217,9.884496217,0.221678994,0.252874338,34.01515334,34.26686545,9.47703736,9,16,99,83,1.390831331,1
849.0078122,9.92155323,9.977204621,10.89179141,10.85339737,0.125208313,0.161418575,9.87359169,9.87359169,0.221664061,0.252867081,34.01292693,34.26528722,9.47703736,9,16,99,83,1.390831331,1
850.0078122,9.922704855,9.975863566,10.8972923,10.85405497,0.125681716,0.161352169,9.871439068,9.871439068,0.221648651,0.252865062,34.01062604,34.26366819,9.47703736,9,16,99,83,1.390831331,1
851.0078122,9.922884956,9.977868278,10.87924439,10.85328944,0.127261049,0.161478738,9.878284296,9.878284296,0.221635865,0.25286385,34.0082056,34.26204336,9.47703736,9,16,99,83,1.390831331,1
852.0078122,9.921288666,9.982102951,10.85206092,10.85369879,0.130309065,0.161583671,9.888525562,9.888525562,0.221621509,0.252865189,34.00587769,34.26039367,9.47703736,9,16,99,83,1.390831331,1
853.0078122,9.91877584,9.984750691,10.83573913,10.85932148,0.135055311,0.161522135,9.895487815,9.895487815,0.221612733,0.252877642,34.00358163,34.25872271,9.47703736,9,16,99,83,1.390831331,1
854.0078122,9.917104634,9.984685601,10.82899007,10.88347104,0.141059355,0.161287297,9.896398234,9.896398234,0.22160114,0.25288586,34.00129765,34.25695658,9.47703736,9,16,99,83,1.390831331,1
855.0078122,9.917727494,9.985215286,10.81315446,10.9505815,0.146830088,0.161086324,9.893195578,9.893195578,0.221592305,0.252904294,33.99905999,34.25518611,9.313859862,8,16,99,83,1.390831331,1
856.0078122,9.920594804,9.988748863,10.78413667,11.06017908,0.150363776,0.161313974,9.889059493,9.889059493,0.221587436,0.252925814,33.99684042,34.25343382,9.313859862,8,16,99,83,1.390831331,1
857.0078122,9.924106399,9.992733976,10.75760795,11.1536821,0.150545195,0.162265049,9.885047668,9.885047668,0.221578046,0.252943917,33.99472459,34.25169678,9.313859862,8,16,99,83,1.390831331,1
858.0078122,9.927076518,9.993297028,10.74435283,11.17037537,0.148166168,0.163744133,9.880927142,9.880927142,0.221571251,0.252966207,33.99251478,34.24989283,9.313859862,8,16,99,83,1.390831331,1
859.0078122,9.929671007,9.990511262,10.7460669,11.12929962,0.145318946,0.165040338,9.875661934,9.875661934,0.2215699,0.252992602,33.99025472,34.24817125,9.313859862,8,16,99,83,1.390831331,1
860.0078122,9.931097627,9.986391729,10.76567715,11.10383058,0.143521111,0.165447197,9.86943485,9.86943485,0.221569875,0.253020401,33.98800836,34.24630321,9.313859862,8,16,99,83,1.390831331,1
861.0078122,9.929554128,9.980756402,10.7972852,11.12401114,0.142418565,0.164839142,9.867558864,9.867558864,0.221569396,0.253052499,33.98577577,34.24458994,9.313859862,8,16,99,83,1.390831331,1
862.0078122,9.926086116,9.974434712,10.82116089,11.13920408,0.140430314,0.163694703,9.874251679,9.874251679,0.221573457,0.253086443,33.98364044,34.24288753,9.313859862,8,16,99,83,1.390831331,1
863.0078122,9.924191821,9.971953781,10.83091366,11.09257752,0.136542225,0.162618978,9.885530978,9.885530978,0.221574265,0.253122065,33.9814862,34.24113634,9.195771913,8,15,99,83,1.390831331,1
864.0078122,9.924763782,9.97512442,10.84297892,10.99899677,0.131348468,0.161918627,9.896269831,9.896269831,0.221575625,0.253154414,33.97926156,34.23948556,9.195771913,8,15,99,83,1.390831331,1
865.0078122,9.925543782,9.980150948,10.86634585,10.91578403,0.126510468,0.161578633,9.905908206,9.905908206,0.221576189,0.253193252,33.97711319,34.23794164,9.195771913,8,15,99,83,1.390831331,1
866.0078122,9.925067799,9.984388516,10.88975141,10.8720489,0.123550588,0.161455854,9.912887608,9.912887608,0.221575494,0.253230022,33.97488596,34.23642683,9.195771913,8,15,99,83,1.390831331,1
867.0078122,9.924022614,9.988586188,10.90086661,10.85591189,0.123119875,0.161360165,9.912913371,9.912913371,0.221570698,0.253274637,33.97272523,34.23504908,9.195771913,8,15,99,83,1.390831331,1
868.0078122,9.923263096,9.991795498,10.89635276,10.84742898,0.124936944,0.161036549,9.904951501,9.904951501,0.221569033,0.253316461,33.97056749,34.23354961,9.195771913,8,15,99,83,1.390831331,1
869.0078122,9.922556536,9.990837811,10.87596971,10.84124893,0.128069788,0.160290825,9.893098031,9.893098031,0.221565279,0.253361868,33.96839046,34.23206723,9.195771913,8,15,99,83,1.390831331,1
870.0078122,9.921637338,9.985195153,10.84688072,10.84467296,0.131383117,0.159192827,9.88350911,9.88350911,0.221566845,0.253405825,33.9661426,34.23056372,9.126804454,8,15,99,84,1.390831331,1
871.0078122,9.92116375,9.977954407,10.83057623,10.86895842,0.134033833,0.157980217,9.881374715,9.881374715,0.221572107,0.253451802,33.96390972,34.22901518,9.126804454,8,15,99,84,1.390831331,1
872.0078122,9.921729782,9.971957978,10.84834866,10.91812528,0.135761091,0.156659503,9.885958999,9.885958999,0.22157205,0.253493936,33.96172108,34.22781784,9.126804454,8,15,99,84,1.390831331,1
873.0078122,9.922448431,9.968481315,10.89770522,10.97226574,0.136804644,0.154892429,9.891298576,9.891298576,0.221575946,0.253537956,33.95954572,34.22666151,9.126804454,8,15,99,84,1.390831331,1
874.0078122,9.92203821,9.968087391,10.94648064,10.99764479,0.137539736,0.152490188,9.896878452,9.896878452,0.221576137,0.25358464,33.95745732,34.22549525,9.126804454,8,15,99,84,1.390831331,1
875.0078122,9.921232015,9.970713911,10.95661378,10.98287389,0.138051285,0.149904812,9.908077704,9.908077704,0.221576614,0.253632312,33.95514008,34.22435073,9.126804454,8,15,99,84,1.390831331,1
876.0078122,9.921728175,9.974889659,10.92424466,10.95534454,0.137901885,0.148036777,9.9232514,9.9232514,0.221576442,0.253680934,33.95279985,34.22328289,9.089680069,8,14,100,84,1.390831331,1
877.0078122,9.92322648,9.977663966,10.87961697,10.94659842,0.13636512,0.147532173,9.932986096,9.932986096,0.221574744,0.253725902,33.95056323,34.22223102,9.089680069,8,14,100,84,1.390831331,1
878.0078122,9.924286244,9.976635812,10.85036419,10.95540445,0.133048173,0.148456382,9.934348478,9.934348478,0.221569091,0.253770558,33.94825794,34.22128105,9.089680069,8,14,100,84,1.390831331,1
879.0078122,9.924642075,9.974030782,10.84880117,10.95776815,0.12836346,0.15063611,9.935374673,9.935374673,0.221566683,0.253814523,33.94584293,34.22053744,9.089680069,8,14,100,84,1.390831331,1
880.0078122,9.924750575,9.975812199,10.88082007,10.94421816,0.123387521,0.154030206,9.94273392,9.94273392,0.221557106,0.253860358,33.94349353,34.21979525,9.089680069,8,14,100,84,1.390831331,1
881.0078122,9.924652107,9.98407581,10.93936649,10.92702688,0.119304444,0.15841199,9.952026973,9.952026973,0.22154789,0.253904153,33.94095853,34.21888115,9.089680069,8,14,100,84,1.390831331,1
882.0078122,9.924054235,9.993887937,10.99339006,10.91362211,0.116941855,0.162689261,9.951948592,9.951948592,0.221537367,0.253946898,33.93846305,34.21820762,9.089680069,8,14,100,84,1.390831331,1
883.0078122,9.922920153,9.999822077,11.00810835,10.89491521,0.116568234,0.165028381,9.935386856,9.935386856,0.221523878,0.253989671,33.93604188,34.21753391,9.089680069,8,14,100,84,1.390831331,1
884.0078122,9.921455938,10.00119944,10.98152715,10.866594,0.117831528,0.164162526,9.906616565,9.906616565,0.221510904,0.254031063,33.93355878,34.21688846,9.068879139,8,14,100,84,1.390831331,1
885.0078122,9.919865379,9.999611606,10.94327775,10.84520989,0.119853142,0.160597694,9.877510506,9.877510506,0.221496861,0.254067609,33.93096746,34.21641985,9.068879139,8,14,100,84,1.390831331,1
886.0078122,9.918879827,9.996757298,10.92173957,10.84539088,0.121606707,0.156221016,9.856752726,9.856752726,0.221482129,0.254106764,33.92836619,34.2159913,9.068879139,8,14,100,84,1.390831331,1
887.0078122,9.919175288,9.994566688,10.92759303,10.85615873,0.122464091,0.152630408,9.845402076,9.845402076,0.22146748,0.254140301,33.92571231,34.2156712,9.068879139,8,14,100,84,1.390831331,1
888.0078122,9.919905747,9.992973168,10.9499372,10.85930891,0.122503088,0.150014405,9.842875384,9.842875384,0.221450825,0.254175173,33.92306718,34.21532647,9.068879139,8,14,100,84,1.390831331,1
889.0078122,9.919602081,9.989712319,10.95551524,10.85389961,0.122268218,0.147747739,9.849983748,9.849983748,0.221430992,0.254211876,33.92040304,34.21519722,9.068879139,8,14,100,84,1.390831331,1
890.0078122,9.918338927,9.985134541,10.92312539,10.85373779,0.122183134,0.145757929,9.862777272,9.862777272,0.221412545,0.25424703,33.91772408,34.21511755,9.068879139,8,14,100,84,1.390831331,1
891.0078122,9.917348295,9.9830554,10.87834741,10.87539791,0.122187034,0.145038024,9.871951664,9.871951664,0.221393286,0.254279269,33.91519057,34.21519087,9.068879139,8,14,100,84,1.390831331,1
892.0078122,9.917261555,9.984316783,10.85779672,10.91880141,0.122026797,0.146748108,9.874184299,9.874184299,0.221375148,0.254314655,33.91242693,34.21524806,9.068879139,8,14,100,84,1.390831331,1
893.0078122,9.918374952,9.98481631,10.8605062,10.95531798,0.121892351,0.150956751,9.877321465,9.877321465,0.221355071,0.254344698,33.9096572,34.21534067,9.067491875,8,14,100,84,1.390831331,1
894.0078122,9.920670679,9.981749894,10.86280101,10.96015931,0.122572124,0.15629686,9.88960206,9.88960206,0.221335854,0.254370732,33.90688519,34.21549065,9.067491875,8,14,100,84,1.390831331,1
895.0078122,9.922620995,9.976710851,10.85120981,10.94882665,0.124774153,0.160726551,9.908971404,9.908971404,0.221320528,0.254395851,33.90419836,34.21576098,9.067491875,8,14,100,84,1.390831331,1
896.0078122,9.922621631,9.97273693,10.83175323,10.95141815,0.128258133,0.162635946,9.926775087,9.926775087,0.221303913,0.254419847,33.90159083,34.2162576,9.067491875,8,14,100,84,1.390831331,1
897.0078122,9.921049217,9.972314459,10.83064801,10.96367453,0.131730589,0.161552147,9.938749908,9.938749908,0.221286425,0.254437534,33.89886777,34.2166662,9.067491875,8,14,100,84,1.390831331,1
898.0078122,9.919376607,9.976747234,10.86799902,10.95136332,0.133682463,0.158190409,9.946995719,9.946995719,0.221267414,0.254461556,33.89607603,34.21709947,9.067491875,8,14,100,84,1.390831331,1
899.0078122,9.918777649,9.985300527,10.91905338,10.90310106,0.133403418,0.153956876,9.95347128,9.95347128,0.221252248,0.25448167,33.89338902,34.2177372,9.067491875,8,14,100,84,1.390831331,1
900.0078122,9.919781336,9.995990023,10.94202375,10.85428993,0.131315535,0.150209617,9.957388802,9.957388802,0.221235828,0.25450553,33.8906627,34.21838119,9.067491875,8,14,100,84,1.390831331,1
901.0078122,9.921998977,10.00666331,10.93556702,10.8411886,0.128500182,0.147674941,9.955245408,9.955245408,0.221218188,0.254525828,33.88787997,34.2190607,9.101744078,8,14,100,83,1.390831331,1
902.0078122,9.924056154,10.01474352,10.92872984,10.85872285,0.126024362,0.146398949,9.941636726,9.941636726,0.221196163,0.254542196,33.88510783,34.2198616,9.101744078,8,14,100,83,1.390831331,1
903.0078122,9.924418787,10.01676854,10.93053323,10.87951866,0.124530919,0.146159828,9.91584145,9.91584145,0.221183217,0.254557798,33.88228842,34.22057437,9.101744078,8,14,100,83,1.390831331,1
904.0078122,9.922764743,10.00892628,10.9145866,10.88234977,0.124182727,0.146998884,9.886220589,9.886220589,0.221169394,0.254571124,33.87965377,34.22137395,9.101744078,8,14,100,83,1.390831331,1
905.0078122,9.920564807,9.991574517,10.86172595,10.85826917,0.124792404,0.149276076,9.863860574,9.863860574,0.22115605,0.254581619,33.87694392,34.22232394,9.101744078,8,14,100,83,1.390831331,1
906.0078122,9.919893045,9.972738232,10.79950693,10.81705665,0.126032169,0.153124419,9.854795131,9.854795131,0.221141346,0.254595077,33.87428791,34.22322338,9.101744078,8,14,100,83,1.390831331,1
907.0078122,9.921400764,9.961607733,10.77097511,10.78643302,0.127655301,0.157887298,9.8591588,9.8591588,0.221120945,0.254608358,33.87163575,34.22418465,9.101744078,8,14,100,83,1.390831331,1
908.0078122,9.923725306,9.960286241,10.78475766,10.79015735,0.129631366,0.162206145,9.871918311,9.871918311,0.221103161,0.254622853,33.86904472,34.22523756,9.178786925,8,14,100,83,1.390831331,1
909.0078122,9.925194924,9.964706262,10.8153224,10.82732146,0.132101548,0.164733173,9.882449801,9.882449801,0.221085521,0.25463708,33.86643296,34.22638173,9.178786925,8,14,100,83,1.390831331,1
910.0078122,9.925595107,9.969639143,10.83357595,10.87211863,0.135158544,0.164847367,9.881432855,9.881432855,0.221074659,0.254651167,33.86386555,34.22762479,9.178786925,8,14,100,83,1.390831331,1
911.0078122,9.925508061,9.97114566,10.82889328,10.89490361,0.138607619,0.162861248,9.87121969,9.87121969,0.221060723,0.254667025,33.86142087,34.22893619,9.178786925,8,14,100,83,1.390831331,1
912.0078122,9.924937126,9.967823843,10.81034068,10.89144111,0.141925397,0.159726181,9.862786793,9.862786793,0.221047916,0.254680082,33.858954,34.23019774,9.178786925,8,14,100,83,1.390831331,1
913.0078122,9.923671135,9.961782673,10.79388123,10.88753384,0.144473954,0.156581717,9.863256422,9.863256422,0.221034659,0.254690484,33.8564244,34.23149046,9.178786925,8,14,100,83,1.390831331,1
914.0078122,9.922088213,9.957131589,10.79066989,10.90479727,0.145792829,0.154389287,9.870322882,9.870322882,0.221030046,0.254704373,33.85386867,34.23290692,9.178786925,8,14,100,83,1.390831331,1
915.0078122,9.920541381,9.956223996,10.80189671,10.9314405,0.145730185,0.153717678,9.877206821,9.877206821,0.221022512,0.254716167,33.85148735,34.23436603,9.279226344,9,14,100,84,1.390831331,1
916.0078122,9.919026731,9.957811841,10.81847676,10.93985532,0.144487164,0.154592584,9.881030836,9.881030836,0.221012929,0.254725897,33.84910301,34.23582569,9.279226344,9,14,100,84,1.390831331,1
917.0078122,9.917802238,9.959949282,10.82724344,10.92321394,0.142568362,0.156527086,9.884379663,9.884379663,0.221010027,0.254741635,33.84668903,34.23741104,9.279226344,9,14,100,84,1.390831331,1
918.0078122,9.916739111,9.963526274,10.82128789,10.90576974,0.140521179,0.158711293,9.889634437,9.889634437,0.221002007,0.254762662,33.84434024,34.23894214,9.279226344,9,14,100,84,1.390831331,1
919.0078122,9.915254228,9.969981104,10.80836231,10.91380208,0.138536039,0.160258921,9.896439108,9.896439108,0.220996031,0.254783405,33.84204967,34.24043576,9.279226344,9,14,100,84,1.390831331,1
920.0078122,9.914103442,9.977329981,10.80845629,10.93706606,0.1363752,0.160482504,9.905705485,9.905705485,0.220988188,0.254799993,33.83981854,34.24209877,9.279226344,9,14,100,84,1.390831331,1
921.0078122,9.91491007,9.982660512,10.83529874,10.94308479,0.133829638,0.159209735,9.920038138,9.920038138,0.220983506,0.254815315,33.83755683,34.24363202,9.362257469,9,15,100,84,1.390831331,1
922.0078122,9.917699688,9.98600805,10.87869911,10.92823415,0.131198943,0.156965246,9.935390952,9.935390952,0.220978142,0.254832631,33.83538216,34.2452304,9.362257469,9,15,100,84,1.390831331,1
923.0078122,9.920663827,9.987889043,10.90844037,10.91410947,0.129229481,0.154754213,9.941160627,9.941160627,0.220980952,0.25484913,33.83321109,34.24684035,9.362257469,9,15,100,84,1.390831331,1
924.0078122,9.921646112,9.986312059,10.9006107,10.90676735,0.12859782,0.153476764,9.934745573,9.934745573,0.22098275,0.254866329,33.83107798,34.24848862,9.362257469,9,15,100,84,1.390831331,1
925.0078122,9.919722203,9.980873252,10.86248763,10.89985692,0.129449044,0.1533895,9.924147179,9.924147179,0.220990814,0.254887262,33.82897733,34.2501397,9.362257469,9,15,100,84,1.390831331,1
926.0078122,9.916494379,9.976078029,10.82374885,10.89563553,0.131314111,0.154059871,9.916091925,9.916091925,0.220997781,0.254904939,33.8269409,34.25187607,9.362257469,9,15,100,84,1.390831331,1
927.0078122,9.915442509,9.976044858,10.80400639,10.89945362,0.133420321,0.154849473,9.913280114,9.913280114,0.221010252,0.254924859,33.82475005,34.25357935,9.391717576,9,15,100,84,1.390831331,1
928.0078122,9.918512511,9.979604864,10.79938754,10.90721388,0.135196692,0.155451809,9.914819223,9.914819223,0.22102502,0.254950152,33.82253448,34.25524482,9.391717576,9,15,100,84,1.390831331,1
929.0078122,9.923746759,9.982541481,10.79847435,10.90833613,0.136688419,0.155998417,9.911701534,9.911701534,0.221037259,0.254977287,33.82038747,34.25692319,9.391717576,9,15,100,84,1.390831331,1
930.0078122,9.927487718,9.982227291,10.80050107,10.90427795,0.138428674,0.156718902,9.895149131,9.895149131,0.221049852,0.255002607,33.81830064,34.25868269,9.391717576,9,15,100,84,1.390831331,1
931.0078122,9.927990376,9.980482477,10.81352681,10.91054422,0.140710384,0.157629113,9.872757879,9.872757879,0.221060657,0.255026931,33.81629641,34.26053271,9.391717576,9,15,100,84,1.390831331,1
932.0078122,9.926487738,9.982098753,10.83843266,10.92790502,0.142908102,0.158604052,9.863362157,9.863362157,0.221073374,0.255046903,33.8142068,34.26223518,9.391717576,9,15,100,84,1.390831331,1
933.0078122,9.925343172,9.988947379,10.86330763,10.93719972,0.14370851,0.159683132,9.875040125,9.875040125,0.221082481,0.255072576,33.81218119,34.26394663,9.362272733,9,15,100,84,1.390831331,1
934.0078122,9.925505231,9.996344748,10.87637032,10.92948254,0.142232397,0.161201582,9.895602606,9.895602606,0.221096984,0.25509532,33.81019688,34.26566928,9.362272733,9,15,100,84,1.390831331,1
935.0078122,9.926030222,9.997277554,10.87676946,10.91290849,0.138962246,0.163549431,9.906317191,9.906317191,0.22111061,0.255119123,33.80821685,34.26747272,9.362272733,9,15,100,84,1.390831331,1
936.0078122,9.925272116,9.98986523,10.86526806,10.89300508,0.135534007,0.166706022,9.902960946,9.902960946,0.221129926,0.255140289,33.80635652,34.26920861,9.362272733,9,15,100,84,1.390831331,1
937.0078122,9.922470867,9.978495058,10.83256422,10.86614148,0.133640322,0.169937747,9.896490486,9.896490486,0.221147222,0.255160994,33.80441677,34.2709907,9.362272733,9,15,100,84,1.390831331,1
938.0078122,9.918916234,9.968596237,10.77564743,10.83069195,0.134018482,0.172045373,9.894342604,9.894342604,0.221161934,0.255177081,33.80243368,34.27272509,9.362272733,9,15,100,84,1.390831331,1
939.0078122,9.916929036,9.963363636,10.71585521,10.79627669,0.136169832,0.172136256,9.892418152,9.892418152,0.221180493,0.255196954,33.80064915,34.27437588,9.362272733,9,15,100,84,1.390831331,1
940.0078122,9.917768232,9.963773249,10.67951909,10.7759789,0.138804258,0.170308864,9.884653561,9.884653561,0.221204399,0.255220899,33.79871331,34.27607874,9.303701546,9,14,100,84,1.390831331,1
941.0078122,9.920884445,9.967936598,10.67475912,10.77102679,0.14063461,0.167551873,9.87136958,9.87136958,0.221228147,0.255240924,33.79671723,34.27800908,9.303701546,9,14,100,84,1.390831331,1
942.0078122,9.924556053,9.971653593,10.69595627,10.77653995,0.141005352,0.164958013,9.858268547,9.858268547,0.22125741,0.25526219,33.79487333,34.27973726,9.303701546,9,14,100,84,1.390831331,1
943.0078122,9.926988331,9.971559863,10.72955978,10.79217728,0.140109875,0.163040617,9.851939861,9.851939861,0.22129096,0.255284573,33.79294636,34.28150309,9.303701546,9,14,100,84,1.390831331,1
944.0078122,9.927227691,9.967510967,10.75499989,10.81060435,0.138740321,0.161777844,9.855239001,9.855239001,0.221320927,0.255300789,33.79096364,34.28316198,9.303701546,9,14,100,84,1.390831331,1
945.0078122,9.92564974,9.962767778,10.76127856,10.8189055,0.137784115,0.161065236,9.863460047,9.863460047,0.22135433,0.255324465,33.78915686,34.28493738,9.303701546,9,14,100,84,1.390831331,1
946.0078122,9.923643367,9.961805783,10.76141152,10.8218868,0.137709101,0.160917963,9.866662509,9.866662509,0.221388425,0.255341635,33.78729832,34.28649868,9.303701546,9,14,100,84,1.390831331,1
947.0078122,9.922329256,9.966391687,10.77743845,10.83811563,0.13828968,0.161277155,9.859248526,9.859248526,0.221422167,0.255356659,33.78545646,34.28809838,9.303701546,9,14,100,84,1.390831331,1
948.0078122,9.921622723,9.972992687,10.80988103,10.8696317,0.138795534,0.161820637,9.844862535,9.844862535,0.22146224,0.255379746,33.78349288,34.28974706,9.260126011,8,14,100,84,1.390831331,1
949.0078122,9.921167717,9.975340652,10.83037422,10.89675357,0.138558423,0.162142082,9.831638395,9.831638395,0.221502888,0.255408129,33.78151943,34.29130334,9.260126011,8,14,100,84,1.390831331,1
950.0078122,9.921329378,9.971108124,10.81509992,10.90173975,0.137425653,0.162189512,9.826822603,9.826822603,0.221544059,0.255437575,33.77953716,34.29308792,9.260126011,8,14,100,84,1.390831331,1
951.0078122,9.922294813,9.964229676,10.77402267,10.88226795,0.135733481,0.162478306,9.832012083,9.832012083,0.221591186,0.255460553,33.77754711,34.29484056,9.260126011,8,14,100,84,1.390831331,1
952.0078122,9.923688009,9.959862262,10.73303981,10.8463804,0.134015501,0.163758432,9.840977088,9.840977088,0.221635733,0.255476213,33.77561468,34.29644859,9.260126011,8,14,100,84,1.390831331,1
953.0078122,9.925350182,9.959766347,10.70543913,10.80654357,0.132839648,0.166374107,9.847204266,9.847204266,0.221684602,0.255491694,33.7737237,34.29801072,9.260126011,8,14,100,84,1.390831331,1
954.0078122,9.92712368,9.962777532,10.6890744,10.77646967,0.132752072,0.169875262,9.849882562,9.849882562,0.221736176,0.255512515,33.77176108,34.29961321,9.260126011,8,14,100,84,1.390831331,1
955.0078122,9.928238951,9.966694673,10.67416832,10.76347414,0.134088621,0.173118243,9.849311253,9.849311253,0.221781826,0.255527095,33.76979213,34.3013533,9.261945417,8,14,100,84,1.390831331,1
956.0078122,9.927861549,9.968970565,10.64924777,10.76567971,0.136664654,0.174814341,9.845900809,9.845900809,0.221832553,0.255543499,33.76781855,34.30289966,9.261945417,8,14,100,84,1.390831331,1
957.0078122,9.926210093,9.968918442,10.61073545,10.78050518,0.139699633,0.174226541,9.84517853,9.84517853,0.221883599,0.255559086,33.76580833,34.30463148,9.261945417,8,14,100,84,1.390831331,1
958.0078122,9.924503172,9.969283577,10.57138864,10.80416535,0.142134789,0.171622674,9.852460962,9.852460962,0.221929623,0.255576781,33.76380286,34.30639298,9.261945417,8,14,100,84,1.390831331,1
959.0078122,9.923678598,9.971939093,10.55201911,10.82154841,0.143157848,0.168076372,9.862503568,9.862503568,0.221978532,0.255588027,33.76184904,34.30795575,9.261945417,8,14,100,84,1.390831331,1
960.0078122,9.923460631,9.974083359,10.564718,10.81334904,0.142634589,0.164728063,9.865196866,9.865196866,0.222023125,0.25560304,33.75972652,34.30963528,9.261945417,8,14,100,84,1.390831331,1
961.0078122,9.923062785,9.972372809,10.60362065,10.77741764,0.141206603,0.162190346,9.85944172,9.85944172,0.222073431,0.255620863,33.75775347,34.31142099,9.261945417,8,14,100,84,1.390831331,1
962.0078122,9.922523996,9.968220717,10.64826139,10.7346452,0.139900212,0.160567275,9.853367973,9.853367973,0.22212022,0.255639596,33.75564289,34.31313412,9.311399167,8,13,100,85,1.390831331,1
963.0078122,9.922373022,9.965851443,10.68159789,10.7148203,0.139381099,0.159818511,9.854235942,9.854235942,0.222166127,0.255657857,33.75346269,34.31501438,9.311399167,8,13,100,85,1.390831331,1
964.0078122,9.922606752,9.967133913,10.70296332,10.73610816,0.139445558,0.159914563,9.86344476,9.86344476,0.222211612,0.25567851,33.7512796,34.31692618,9.311399167,8,13,100,85,1.390831331,1
965.0078122,9.92281579,9.970048301,10.71781795,10.78909381,0.139327676,0.160666455,9.878298902,9.878298902,0.222254517,0.255690685,33.74916938,34.31878332,9.311399167,8,13,100,85,1.390831331,1
966.0078122,9.922681643,9.971428735,10.72480717,10.83966009,0.138567555,0.161629848,9.89373327,9.89373327,0.22229508,0.255710278,33.74704487,34.3207004,9.311399167,8,13,100,85,1.390831331,1
967.0078122,9.922026667,9.970384405,10.71832048,10.85649579,0.13743257,0.16238455,9.90288857,9.90288857,0.222338809,0.255727337,33.74490967,34.32258422,9.311399167,8,13,100,85,1.390831331,1
968.0078122,9.92117857,9.96806692,10.69698823,10.8381019,0.136421279,0.162862445,9.901476916,9.901476916,0.222382102,0.255742912,33.74282733,34.32455728,9.311399167,8,13,100,85,1.390831331,1
969.0078122,9.921264522,9.965505904,10.6701352,10.80948999,0.135574255,0.163257275,9.894107886,9.894107886,0.222425372,0.255761691,33.74057149,34.32649449,9.311399167,8,13,100,85,1.390831331,1
970.0078122,9.922863413,9.963478901,10.65389008,10.79750025,0.134557305,0.163620431,9.89035161,9.89035161,0.222463783,0.255777933,33.73840787,34.32844651,9.388360697,9,13,100,85,1.390831331,1
971.0078122,9.924977351,9.963053908,10.65608366,10.8123982,0.133371929,0.163728228,9.892170901,9.892170901,0.222499876,0.255790449,33.73629687,34.3303403,9.388360697,9,13,100,85,1.390831331,1
972.0078122,9.92615853,9.964672663,10.67030561,10.84875441,0.132683707,0.163392924,9.890583721,9.890583721,0.222536884,0.255807612,33.73407232,34.3325092,9.388360697,9,13,100,85,1.390831331,1
973.0078122,9.925569725,9.967571945,10.68082115,10.89702134,0.133265091,0.162785932,9.878052558,9.878052558,0.222570165,0.255826532,33.73186295,34.33463998,9.388360697,9,13,100,85,1.390831331,1
974.0078122,9.923321296,9.971243202,10.67002864,10.94527864,0.135235047,0.162396295,9.859642677,9.859642677,0.222595587,0.255843001,33.72972476,34.33669871,9.388360697,9,13,100,85,1.390831331,1
975.0078122,9.920823915,9.976197184,10.64124408,10.9745022,0.138112093,0.162751894,9.845952737,9.845952737,0.222621923,0.255858808,33.72748374,34.33889177,9.388360697,9,13,100,85,1.390831331,1
976.0078122,9.919399076,9.981981907,10.62525039,10.96976962,0.141721853,0.164267128,9.839623659,9.839623659,0.222648321,0.255879125,33.72523704,34.34119671,9.467027614,9,14,100,86,1.390831331,1
977.0078122,9.917812464,9.985461179,10.63619614,10.93732903,0.146815032,0.167288123,9.835009175,9.835009175,0.222670735,0.255898631,33.72307126,34.34339398,9.467027614,9,14,100,86,1.390831331,1
978.0078122,9.913926959,9.984120112,10.65178774,10.90588272,0.154259736,0.171950252,9.827432835,9.827432835,0.222695325,0.255916917,33.72081244,34.34558603,9.467027614,9,14,100,86,1.390831331,1
