Time (s),Waist Acceleration,Chest Acceleration,Left Ankle Acceleration,right Ankle Acceleration,EMG_magnitude_left,EMG_magnitude_right,left wrist Acceleration,right wrist Acceleration,left wrist electrodermal,right wrist electrodermal,left wrist Temperature,right wrist Temperature,VO2,Breath Frequency,Minute Ventilation,SpO2,Heart Rate,Energy expenditures (W/kg) ,Activity Code
360.0078122,9.882183664,9.899293515,9.864823372,10.03576227,0.1455401,0.101008975,9.781590526,9.781590526,0.586640172,0.325180016,34.21965169,36.41146798,4.12601052,10,9,100,82,2.131293021,2
361.0078122,9.884048405,9.921103257,10.00201566,10.19459785,0.169432743,0.114352427,9.806234724,9.806234724,0.587017093,0.324745809,34.2233164,36.40737421,4.12601052,10,9,100,82,2.131293021,2
362.0078122,9.890159877,9.962685452,10.27428274,10.48614591,0.19349225,0.131254102,9.87323489,9.87323489,0.587386,0.324309138,34.22667366,36.40261593,8.763636837,20,19,99,89,2.131293021,2
363.0078122,9.901722994,10.02750483,10.69370498,10.903073,0.215787482,0.150854899,9.959085427,9.959085427,0.587752819,0.323870866,34.22965523,36.39726944,8.763636837,20,19,99,89,2.131293021,2
364.0078122,9.91678438,10.10264016,11.18700256,11.35902082,0.235157263,0.171181122,10.03998433,10.03998433,0.588110669,0.323430864,34.23228653,36.39131545,8.763636837,20,19,99,89,2.131293021,2
365.0078122,9.931677972,10.16651406,11.62689036,11.72606571,0.251132817,0.18985147,10.10447273,10.10447273,0.588461162,0.322989541,34.23439541,36.38480876,8.783857746,20,19,99,89,2.131293021,2
366.0078122,9.942523669,10.20568127,11.92377539,11.93712554,0.263710471,0.204986566,10.14793047,10.14793047,0.588807391,0.322551709,34.23599019,36.37757227,8.783857746,20,19,99,89,2.131293021,2
367.0078122,9.947486699,10.22070137,12.06963448,12.03955458,0.273266538,0.215645643,10.16325761,10.16325761,0.589162717,0.32211454,34.237215,36.3697013,8.822775251,20,18,99,89,2.131293021,2
368.0078122,9.947573939,10.21836138,12.09386725,12.11412632,0.280300236,0.221820715,10.14851926,10.14851926,0.589538296,0.321680617,34.23795222,36.36156323,8.822775251,20,18,99,89,2.131293021,2
369.0078122,9.944655754,10.20649141,12.0287596,12.17822699,0.284937981,0.224250086,10.11844145,10.11844145,0.589912933,0.32125255,34.2382117,36.35285744,8.822775251,20,18,99,89,2.131293021,2
370.0078122,9.940737515,10.19443049,11.93145749,12.20661517,0.286835947,0.224090807,10.09669725,10.09669725,0.590277327,0.320831123,34.23787956,36.34350908,8.822775251,20,18,99,89,2.131293021,2
371.0078122,9.938175049,10.18863953,11.8782162,12.19989846,0.285818507,0.222495348,10.09872252,10.09872252,0.590632239,0.320422837,34.23711216,36.33373569,8.877406745,20,18,99,89,2.131293021,2
372.0078122,9.937830947,10.18753796,11.90816311,12.1879611,0.282487487,0.220301939,10.12466122,10.12466122,0.590996349,0.320019784,34.23581105,36.32342288,8.877406745,20,18,99,89,2.131293021,2
373.0078122,9.938305214,10.18612421,11.99844083,12.19323363,0.277998899,0.218030413,10.16281314,10.16281314,0.591360818,0.3196233,34.2340191,36.31272797,8.877406745,20,18,99,89,2.131293021,2
374.0078122,9.938650301,10.18327329,12.09713016,12.21821309,0.273314917,0.216077033,10.19533444,10.19533444,0.591727019,0.319230085,34.23163232,36.30160086,8.877406745,20,18,99,89,2.131293021,2
375.0078122,9.93995377,10.18073395,12.16648116,12.24699675,0.268863047,0.214910121,10.20898287,10.20898287,0.592127647,0.318746277,34.2287259,36.28987796,8.943458386,20,18,99,89,2.131293021,2
376.0078122,9.943140664,10.1805074,12.20008856,12.24991815,0.264810779,0.215038524,10.20540347,10.20540347,0.592565387,0.318301912,34.22533284,36.27784215,8.943458386,20,18,99,89,2.131293021,2
377.0078122,9.947092925,10.18495761,12.20807511,12.21010345,0.261387677,0.216702357,10.19401879,10.19401879,0.592991228,0.317862397,34.22147341,36.26542633,8.943458386,20,18,99,89,2.131293021,2
378.0078122,9.949859661,10.1931085,12.19415941,12.14434212,0.258813236,0.219519795,10.17979209,10.17979209,0.593419574,0.317425223,34.21714318,36.25278713,9.015576136,20,18,99,89,2.131293021,2
379.0078122,9.950601744,10.20005647,12.16185713,12.08761307,0.256998354,0.222465771,10.16813229,10.16813229,0.593850677,0.316994,34.21240385,36.23983944,9.015576136,20,18,99,89,2.131293021,2
380.0078122,9.949901733,10.20355845,12.12932244,12.06583235,0.255468328,0.224328092,10.16915664,10.16915664,0.594289554,0.316560918,34.20720068,36.22665393,9.015576136,20,18,99,89,2.131293021,2
381.0078122,9.948845685,10.20419453,12.110152,12.08552385,0.253656751,0.224360588,10.18328473,10.18328473,0.594735984,0.316124716,34.20148425,36.21304193,9.087719398,20,18,99,89,2.131293021,2
382.0078122,9.94817938,10.20062594,12.10092356,12.13613242,0.251295181,0.222650332,10.19526437,10.19526437,0.595193018,0.315505138,34.19536833,36.19932274,9.087719398,20,18,99,89,2.131293021,2
383.0078122,9.948070178,10.19215519,12.10135749,12.18796293,0.248599074,0.219947171,10.19340373,10.19340373,0.595655762,0.314963599,34.18893424,36.18530592,9.087719398,20,18,99,89,2.131293021,2
384.0078122,9.948699432,10.18377087,12.11687961,12.19906453,0.24621455,0.217149058,10.18438902,10.18438902,0.596131595,0.314425077,34.18187914,36.17117928,9.153657433,20,18,99,89,2.131293021,2
385.0078122,9.950445364,10.18255216,12.13923967,12.15576112,0.244994817,0.214799056,10.1830494,10.1830494,0.596619355,0.313896583,34.1745229,36.15685754,9.153657433,20,18,99,89,2.131293021,2
386.0078122,9.952796728,10.1884294,12.14781441,12.1010571,0.245685,0.212835854,10.1941475,10.1941475,0.597113248,0.313363345,34.16699095,36.14240178,9.153657433,20,18,99,89,2.131293021,2
387.0078122,9.954292599,10.19371938,12.13312005,12.09411039,0.248530408,0.210637851,10.20837838,10.20837838,0.597617768,0.312823589,34.1589901,36.1280237,9.207559127,20,18,99,89,2.131293021,2
388.0078122,9.953990809,10.19217146,12.10335653,12.15158653,0.253005508,0.207532248,10.213839,10.213839,0.598130627,0.312307551,34.15071606,36.1134901,9.207559127,20,18,99,89,2.131293021,2
389.0078122,9.952363289,10.18324598,12.06974219,12.24407488,0.257847368,0.203550424,10.20568119,10.20568119,0.598653298,0.311840789,34.14210536,36.09883722,9.207559127,20,18,99,89,2.131293021,2
390.0078122,9.950819751,10.17006482,12.04541653,12.33364849,0.261501483,0.199708609,10.18664514,10.18664514,0.599197814,0.31134206,34.13325274,36.08409823,9.244613201,20,18,99,88,2.131293021,2
391.0078122,9.950082614,10.15788225,12.04675044,12.39524243,0.262811419,0.197315788,10.16575391,10.16575391,0.599745225,0.310841266,34.12410931,36.06945983,9.244613201,20,18,99,88,2.131293021,2
392.0078122,9.949702196,10.15136745,12.07562915,12.4111736,0.261550155,0.196874849,10.15370647,10.15370647,0.600308396,0.310310863,34.11465866,36.05501267,9.244613201,20,18,99,88,2.131293021,2
393.0078122,9.949433245,10.15127659,12.1137891,12.379195,0.258473404,0.197728629,10.15664347,10.15664347,0.600881738,0.309765844,34.1050596,36.04044236,9.261589135,20,18,99,88,2.131293021,2
394.0078122,9.949479924,10.15595648,12.14919449,12.33100883,0.254868286,0.198820102,10.17683803,10.17683803,0.60145877,0.309193786,34.09520016,36.02594679,9.261589135,20,18,99,88,2.131293021,2
395.0078122,9.949846855,10.1642014,12.19173624,12.31050939,0.251845658,0.199694827,10.21266364,10.21266364,0.602047436,0.30861022,34.08525995,36.01151995,9.261589135,20,18,99,88,2.131293021,2
396.0078122,9.950385725,10.17429029,12.24355021,12.32326537,0.249804457,0.200690082,10.25211695,10.25211695,0.602647405,0.308019881,34.07521557,35.99718983,9.2572395,20,18,99,87,2.131293021,2
397.0078122,9.950639887,10.1837639,12.27956094,12.33242675,0.248411118,0.202288758,10.27486386,10.27486386,0.603256593,0.307417035,34.06483975,35.983006,9.2572395,20,18,99,87,2.131293021,2
398.0078122,9.950173498,10.19167684,12.28106603,12.31198623,0.247006594,0.204530722,10.26985519,10.26985519,0.603877745,0.306808027,34.05460121,35.96893246,9.232459015,20,18,99,86,2.131293021,2
399.0078122,9.949332477,10.19827585,12.26194435,12.27749454,0.24505353,0.207031401,10.2476369,10.2476369,0.604503728,0.306189056,34.04412926,35.95495601,9.232459015,20,18,99,86,2.131293021,2
400.0078122,9.948901306,10.20301353,12.24561597,12.25574734,0.242342883,0.209335309,10.22849718,10.22849718,0.605135734,0.305569042,34.03366539,35.94124538,9.232459015,20,18,99,86,2.131293021,2
401.0078122,9.949484802,10.20489446,12.2387094,12.25128943,0.239030209,0.211096394,10.22152864,10.22152864,0.605766846,0.304954353,34.02324136,35.92755443,9.190154917,20,18,99,85,2.131293021,2
402.0078122,9.951024286,10.20443759,12.24123251,12.25665926,0.235577347,0.21209677,10.22053508,10.22053508,0.606403453,0.304339056,34.01284938,35.91408462,9.190154917,20,18,99,85,2.131293021,2
403.0078122,9.952318578,10.20431322,12.26167313,12.26962078,0.23260843,0.212293258,10.2148384,10.2148384,0.607032626,0.30373135,34.00245171,35.90070304,9.190154917,20,18,99,85,2.131293021,2
404.0078122,9.951868787,10.20545105,12.29996508,12.28364058,0.230745593,0.211837377,10.19943822,10.19943822,0.607651824,0.30312225,33.99208302,35.88765219,9.134839637,20,18,99,85,2.131293021,2
405.0078122,9.949411672,10.20346097,12.33399964,12.28624175,0.23048782,0.210993021,10.17807854,10.17807854,0.608304553,0.302520848,33.98182153,35.87485931,9.134839637,20,18,99,85,2.131293021,2
406.0078122,9.946034907,10.19468379,12.34385644,12.2765346,0.232059872,0.210072199,10.15613214,10.15613214,0.608979788,0.301926563,33.97166367,35.86214454,9.134839637,20,18,99,85,2.131293021,2
407.0078122,9.943309903,10.18300659,12.33241272,12.26709658,0.235202429,0.209417893,10.13413811,10.13413811,0.609652022,0.301345696,33.96155644,35.84968625,9.134839637,20,18,99,85,2.131293021,2
408.0078122,9.942480901,10.17640081,12.31201246,12.27173672,0.239108424,0.20926229,10.11214208,10.11214208,0.610321502,0.300780254,33.95146657,35.83738729,9.072016591,20,18,99,84,2.131293021,2
409.0078122,9.943473715,10.17980499,12.28288899,12.29611665,0.242705582,0.209467335,10.0925093,10.0925093,0.610993812,0.300230772,33.94152013,35.82527875,9.072016591,20,18,99,84,2.131293021,2
410.0078122,9.944667167,10.19016234,12.23871289,12.32845277,0.245153468,0.209462774,10.07642041,10.07642041,0.61166384,0.299696219,33.93160789,35.81318922,9.007476632,20,18,99,83,2.131293021,2
411.0078122,9.944553974,10.19698222,12.19353546,12.34274794,0.24619899,0.208585437,10.06550675,10.06550675,0.61232725,0.299182458,33.92199964,35.80136546,9.007476632,20,18,99,83,2.131293021,2
412.0078122,9.943623409,10.19265722,12.17910773,12.33538092,0.246171722,0.206589594,10.06577313,10.06577313,0.613004762,0.298690693,33.91242433,35.78984806,9.007476632,20,18,99,83,2.131293021,2
413.0078122,9.943566553,10.18171519,12.20744645,12.34527581,0.245661977,0.20391245,10.08271935,10.08271935,0.613682684,0.298224532,33.90303399,35.77836176,8.94664262,20,18,99,83,2.131293021,2
414.0078122,9.944735709,10.17357246,12.25502097,12.40250977,0.245138802,0.201452918,10.11538413,10.11538413,0.614355015,0.297783643,33.89357394,35.76695822,8.94664262,20,18,99,83,2.131293021,2
415.0078122,9.94618995,10.17027864,12.29282716,12.48448199,0.244743498,0.200049348,10.15921356,10.15921356,0.615032054,0.29735887,33.88435801,35.7556983,8.94664262,20,18,99,83,2.131293021,2
416.0078122,9.947511602,10.16874518,12.3194494,12.54811489,0.244340431,0.20006191,10.2089228,10.2089228,0.615711749,0.29696619,33.87537775,35.74443954,8.894085463,20,18,99,82,2.131293021,2
417.0078122,9.948442221,10.16807682,12.35072792,12.57136258,0.243693512,0.201308022,10.25677391,10.25677391,0.616381108,0.296592903,33.8664222,35.73339158,8.894085463,20,18,99,82,2.131293021,2
418.0078122,9.948093672,10.16807221,12.38679229,12.55787929,0.242654811,0.203268903,10.29394399,10.29394399,0.617043905,0.296245287,33.85748112,35.72248997,8.894085463,20,18,99,82,2.131293021,2
419.0078122,9.945997097,10.16650104,12.40701998,12.53115499,0.24135226,0.205371679,10.31478444,10.31478444,0.617705821,0.295927443,33.84871037,35.71176339,8.853289581,20,18,99,82,2.131293021,2
420.0078122,9.942899135,10.16243704,12.39568967,12.51612673,0.240295091,0.207213042,10.32030545,10.32030545,0.618363804,0.295621974,33.8401278,35.70118786,8.853289581,20,18,99,82,2.131293021,2
421.0078122,9.940271042,10.15975902,12.36284411,12.51261604,0.240239703,0.208610817,10.31776697,10.31776697,0.619015898,0.295335015,33.83155024,35.69060426,8.853289581,20,18,99,82,2.131293021,2
422.0078122,9.938896997,10.16336766,12.33655353,12.50450221,0.241817056,0.209486071,10.31483409,10.31483409,0.619662697,0.295068244,33.82302763,35.68009368,8.826680177,19,18,99,81,2.131293021,2
423.0078122,9.937994548,10.17240701,12.33647419,12.49235535,0.245137337,0.209805871,10.31722299,10.31722299,0.62030381,0.294822803,33.81460008,35.66968764,8.826680177,19,18,99,81,2.131293021,2
424.0078122,9.936912509,10.18229102,12.35620077,12.4895542,0.249616372,0.209720759,10.32831794,10.32831794,0.620947714,0.294592916,33.80624507,35.6595405,8.826680177,19,18,99,81,2.131293021,2
425.0078122,9.936459838,10.19288162,12.36847509,12.49296134,0.254193754,0.209648629,10.34228908,10.34228908,0.621587218,0.294381287,33.79805389,35.64944225,8.815856589,19,18,99,81,2.131293021,2
426.0078122,9.937157799,10.20671079,12.352033,12.48235395,0.257803192,0.210075251,10.34829281,10.34829281,0.622226492,0.294194626,33.79000164,35.63934305,8.815856589,19,18,99,81,2.131293021,2
427.0078122,9.938034316,10.21886315,12.3138865,12.44447219,0.259876081,0.21125775,10.34761238,10.34761238,0.622852969,0.294017583,33.7819284,35.62936003,8.815856589,19,18,99,81,2.131293021,2
428.0078122,9.938200765,10.21893244,12.27808239,12.38933128,0.260489949,0.213140692,10.34833409,10.34833409,0.623460309,0.293857946,33.77387588,35.61931776,8.821923701,19,18,99,81,2.131293021,2
429.0078122,9.937648201,10.20467189,12.26023472,12.34179042,0.260191023,0.215482496,10.34727361,10.34727361,0.624064726,0.293711806,33.76602698,35.60929352,8.821923701,19,18,99,81,2.131293021,2
430.0078122,9.936267199,10.18643525,12.25998242,12.31559958,0.259723001,0.218001445,10.33726272,10.33726272,0.62467844,0.293571615,33.75826319,35.59949363,8.821923701,19,18,99,81,2.131293021,2
431.0078122,9.934041636,10.17686007,12.26728837,12.30371447,0.259746199,0.220485695,10.31935921,10.31935921,0.625296075,0.293441698,33.75068676,35.58971613,8.84579155,19,18,99,81,2.131293021,2
432.0078122,9.931775545,10.18014373,12.26646772,12.28935108,0.260492836,0.222890643,10.29593749,10.29593749,0.625914211,0.293319591,33.74314219,35.58000166,8.84579155,19,18,99,81,2.131293021,2
433.0078122,9.930702028,10.19080878,12.24359148,12.2545492,0.261538431,0.225271968,10.26776857,10.26776857,0.626525789,0.293209062,33.73564985,35.57032864,8.84579155,19,18,99,81,2.131293021,2
434.0078122,9.931378919,10.19839176,12.19706851,12.19607129,0.26201778,0.227445036,10.24156513,10.24156513,0.627139464,0.29310035,33.72836905,35.56076712,8.888328538,19,18,99,80,2.131293021,2
435.0078122,9.932804875,10.1962506,12.14005033,12.14328924,0.261236033,0.228763003,10.22778624,10.22778624,0.627736186,0.293075768,33.72109426,35.55126449,8.888328538,19,18,99,80,2.131293021,2
436.0078122,9.933367078,10.18870851,12.0962385,12.13404189,0.259187903,0.228521874,10.23087381,10.23087381,0.628298949,0.293023896,33.71373774,35.54192557,8.888328538,19,18,99,80,2.131293021,2
437.0078122,9.932955414,10.18482401,12.08573106,12.16895285,0.256567498,0.226679808,10.2461524,10.2461524,0.628888696,0.292968761,33.70659217,35.53262032,8.888328538,19,18,99,80,2.131293021,2
438.0078122,9.932990238,10.18710642,12.10878678,12.21490002,0.254245923,0.223962352,10.2637777,10.2637777,0.629496543,0.292910467,33.69951504,35.52337925,8.950302485,19,17,99,80,2.131293021,2
439.0078122,9.934002123,10.19120455,12.14701033,12.2485611,0.25264553,0.221227646,10.27472691,10.27472691,0.630115002,0.292845931,33.69247507,35.51415355,8.950302485,19,17,99,80,2.131293021,2
440.0078122,9.934892132,10.19277199,12.17751624,12.27654905,0.251517154,0.218926838,10.27351215,10.27351215,0.630729486,0.292778171,33.6854838,35.5048204,8.950302485,19,17,99,80,2.131293021,2
441.0078122,9.935083388,10.19107992,12.1879852,12.31549457,0.250440066,0.21723263,10.25907649,10.25907649,0.631337931,0.292706911,33.67853766,35.49557784,9.032113238,19,18,99,80,2.131293021,2
442.0078122,9.934977472,10.18908399,12.18857186,12.36724335,0.249606471,0.216276905,10.24023257,10.24023257,0.631935794,0.292743474,33.67182917,35.48629012,9.032113238,19,18,99,80,2.131293021,2
443.0078122,9.934710954,10.19179779,12.20938803,12.42310262,0.250072181,0.215925465,10.23225448,10.23225448,0.632529598,0.292752276,33.66518421,35.47716366,9.032113238,19,18,99,80,2.131293021,2
444.0078122,9.934513203,10.20034693,12.26668794,12.47554809,0.253102408,0.21549689,10.23961758,10.23961758,0.633122039,0.292698134,33.65856865,35.46806044,9.133391223,19,18,99,80,2.131293021,2
445.0078122,9.934874885,10.20811491,12.32900517,12.51750072,0.25906853,0.214080564,10.25380865,10.25380865,0.633724326,0.292614253,33.65203717,35.45903603,9.133391223,19,18,99,80,2.131293021,2
446.0078122,9.935887628,10.2080596,12.34060009,12.54511527,0.266747966,0.211264229,10.26921635,10.26921635,0.634332048,0.292513264,33.64553905,35.44992824,9.133391223,19,18,99,80,2.131293021,2
447.0078122,9.93717325,10.20089058,12.2764182,12.55281247,0.273627234,0.207532701,10.28268986,10.28268986,0.634928336,0.292409168,33.6391962,35.44075854,9.252587407,19,18,99,80,2.131293021,2
448.0078122,9.938093219,10.19209467,12.1635297,12.52696263,0.277103981,0.204019631,10.27778657,10.27778657,0.635515137,0.29229625,33.63292155,35.43177432,9.252587407,19,18,99,80,2.131293021,2
449.0078122,9.938688563,10.18532336,12.05788038,12.46355042,0.275783269,0.201888868,10.23388952,10.23388952,0.636105463,0.292181724,33.62682497,35.42276779,9.252587407,19,18,99,80,2.131293021,2
450.0078122,9.940006578,10.18188165,12.00904618,12.37999542,0.270060206,0.201733724,10.15867323,10.15867323,0.636717853,0.292060587,33.6207631,35.41395507,9.386695583,19,18,99,80,2.131293021,2
451.0078122,9.94192798,10.18206387,12.03674141,12.29921218,0.26180171,0.203253046,10.09257126,10.09257126,0.637355826,0.291939412,33.61475985,35.40493874,9.386695583,19,18,99,80,2.131293021,2
452.0078122,9.942477773,10.1835241,12.11220466,12.23863008,0.253566223,0.205384801,10.06842915,10.06842915,0.637998367,0.291811083,33.60890591,35.39617262,9.386695583,19,18,99,80,2.131293021,2
453.0078122,9.940967284,10.18192983,12.17225578,12.21611505,0.247572524,0.206920851,10.07701652,10.07701652,0.638637372,0.291687517,33.60309224,35.3874312,9.531221636,19,18,99,80,2.131293021,2
454.0078122,9.939372855,10.17584674,12.18019901,12.23597568,0.244880476,0.207234597,10.08602875,10.08602875,0.63927839,0.29156771,33.5973804,35.37870176,9.531221636,19,18,99,80,2.131293021,2
455.0078122,9.939770101,10.1695828,12.15840615,12.26945615,0.245227623,0.206522631,10.08267474,10.08267474,0.639919078,0.291448265,33.59179879,35.36998377,9.531221636,19,18,99,80,2.131293021,2
456.0078122,9.942407067,10.16922567,12.14857906,12.28579404,0.247601555,0.205415857,10.07635463,10.07635463,0.640556534,0.291325429,33.58624622,35.36130278,9.531221636,19,18,99,80,2.131293021,2
457.0078122,9.946130964,10.1760464,12.15892392,12.29070665,0.250979523,0.20444316,10.07050537,10.07050537,0.641199665,0.291209111,33.5808158,35.35270623,9.680452726,19,18,99,80,2.131293021,2
458.0078122,9.949291319,10.18594861,12.16890597,12.30364537,0.254635139,0.203775335,10.06055601,10.06055601,0.641854306,0.291088133,33.57539899,35.3440507,9.680452726,19,18,99,80,2.131293021,2
459.0078122,9.950517575,10.19402943,12.17030186,12.3221203,0.258041116,0.203191458,10.05274951,10.05274951,0.642516519,0.2909756,33.56998069,35.3356362,9.680452726,19,18,99,80,2.131293021,2
460.0078122,9.949792691,10.19826879,12.17768484,12.33540816,0.260760353,0.202165139,10.05889385,10.05889385,0.643181384,0.290861148,33.56471316,35.32709339,9.680452726,19,18,99,80,2.131293021,2
461.0078122,9.948469145,10.20008011,12.2041017,12.34749725,0.262455186,0.200205052,10.07642438,10.07642438,0.643850255,0.290744779,33.55950765,35.31868137,9.827999945,19,18,99,80,2.131293021,2
462.0078122,9.947289503,10.20039453,12.23530441,12.36394843,0.262915758,0.197369747,10.09206771,10.09206771,0.644515255,0.290627219,33.55434662,35.31023274,9.827999945,19,18,99,80,2.131293021,2
463.0078122,9.945713286,10.19693468,12.2389871,12.38355573,0.26211288,0.194491878,10.10198272,10.10198272,0.645188391,0.290506747,33.54928887,35.30192555,9.827999945,19,18,99,80,2.131293021,2
464.0078122,9.943460603,10.18943886,12.21263679,12.41008636,0.260313452,0.192839608,10.11489234,10.11489234,0.645869907,0.290390476,33.54433741,35.29368153,9.967514286,19,18,99,79,2.131293021,2
465.0078122,9.94073473,10.18363958,12.19535769,12.44338061,0.258209214,0.193561747,10.13406485,10.13406485,0.646528065,0.290276422,33.53935876,35.285343,9.967514286,19,18,99,79,2.131293021,2
466.0078122,9.937796623,10.18442145,12.21379528,12.46606477,0.256867307,0.197234729,10.14613655,10.14613655,0.647166016,0.290163221,33.53445162,35.27710637,9.967514286,19,18,99,79,2.131293021,2
467.0078122,9.935268938,10.18920614,12.25018745,12.45558753,0.25728112,0.203579548,10.13638808,10.13638808,0.647834915,0.290051965,33.52961093,35.26883425,10.09342988,19,19,99,79,2.131293021,2
468.0078122,9.933209173,10.19252971,12.27260942,12.40372631,0.259596573,0.211268939,10.11253999,10.11253999,0.648525604,0.289939922,33.52501664,35.26070418,10.09342988,19,19,99,79,2.131293021,2
469.0078122,9.931029352,10.19266552,12.26294586,12.33253468,0.262740742,0.218129142,10.10263877,10.10263877,0.649228588,0.289828425,33.52032031,35.25268237,10.09342988,19,19,99,79,2.131293021,2
470.0078122,9.929382159,10.19116925,12.22092137,12.28860912,0.265125519,0.222074468,10.12485744,10.12485744,0.649945694,0.289717581,33.51584576,35.24477231,10.20158317,19,19,99,79,2.131293021,2
471.0078122,9.929527301,10.19033917,12.1676159,12.30348597,0.265869913,0.222326409,10.16820742,10.16820742,0.650661996,0.289604154,33.51134835,35.2367292,10.20158317,19,19,99,79,2.131293021,2
472.0078122,9.931194741,10.19261463,12.12732258,12.36732688,0.265150545,0.219785771,10.21049677,10.21049677,0.651361575,0.289495274,33.50686458,35.22870498,10.20158317,19,19,99,79,2.131293021,2
473.0078122,9.933291017,10.19871349,12.10352163,12.44283608,0.263354244,0.216100149,10.24803442,10.24803442,0.652043256,0.289379259,33.50242095,35.22076855,10.289592,20,19,99,79,2.131293021,2
474.0078122,9.935404597,10.20579172,12.09285224,12.49588675,0.260336808,0.212417645,10.2963757,10.2963757,0.652730047,0.289263285,33.49826629,35.21278222,10.289592,20,19,99,79,2.131293021,2
475.0078122,9.937194198,10.20999448,12.10414325,12.51216117,0.255835831,0.209098152,10.3625958,10.3625958,0.65342199,0.289154489,33.49391933,35.20490061,10.289592,20,19,99,79,2.131293021,2
476.0078122,9.938313534,10.21038422,12.14126372,12.50732582,0.250320375,0.206333854,10.42762009,10.42762009,0.6541139,0.289038602,33.4895848,35.19714367,10.35694132,20,19,99,79,2.131293021,2
477.0078122,9.939016487,10.20797246,12.19721876,12.50774762,0.244981791,0.204558672,10.45904363,10.45904363,0.654806347,0.288924046,33.48540549,35.18953887,10.35694132,20,19,99,79,2.131293021,2
478.0078122,9.9398366,10.2029293,12.26659609,12.52415389,0.240840238,0.204078544,10.43980792,10.43980792,0.655493096,0.288816002,33.48130121,35.18175792,10.35694132,20,19,99,79,2.131293021,2
479.0078122,9.940903053,10.19502607,12.3416722,12.55141549,0.238133272,0.204545878,10.38829176,10.38829176,0.656174225,0.288700141,33.47708583,35.17388552,10.40479235,20,19,99,79,2.131293021,2
480.0078122,9.941472868,10.18598276,12.40546393,12.57263658,0.236473826,0.204986134,10.34340471,10.34340471,0.656838478,0.288583344,33.47299822,35.16610707,10.40479235,20,19,99,79,2.131293021,2
481.0078122,9.940824826,10.17892843,12.44195169,12.56863536,0.23544324,0.204417419,10.3271916,10.3271916,0.657488878,0.288470602,33.46902965,35.15842684,10.40479235,20,19,99,79,2.131293021,2
482.0078122,9.939907415,10.17459003,12.44731527,12.53991273,0.234900491,0.202525957,10.33499595,10.33499595,0.658137184,0.288351309,33.46508997,35.15078994,10.43558835,20,19,99,79,2.131293021,2
483.0078122,9.940377588,10.17170781,12.42814389,12.50180261,0.234841131,0.199918585,10.35263826,10.35263826,0.658778887,0.288229851,33.46123306,35.14325694,10.43558835,20,19,99,79,2.131293021,2
484.0078122,9.942198492,10.17049258,12.39140012,12.46292033,0.235168614,0.197826129,10.36330888,10.36330888,0.659428251,0.28811048,33.45729179,35.13565821,10.43558835,20,19,99,79,2.131293021,2
485.0078122,9.943871098,10.17194567,12.34336087,12.4284458,0.235698979,0.197489512,10.34904693,10.34904693,0.66007442,0.287982611,33.45335395,35.12807262,10.4525599,20,20,99,79,2.131293021,2
486.0078122,9.944346029,10.17668146,12.30168928,12.40807679,0.236287825,0.199567863,10.30728315,10.30728315,0.660707388,0.28785272,33.44939708,35.12066447,10.4525599,20,20,99,79,2.131293021,2
487.0078122,9.943784138,10.18440838,12.29386843,12.40661579,0.23684113,0.20378191,10.26194609,10.26194609,0.661316238,0.287718671,33.44553969,35.11314491,10.4525599,20,20,99,79,2.131293021,2
488.0078122,9.942970031,10.19152724,12.32953918,12.40945095,0.237243322,0.208916161,10.24339993,10.24339993,0.661919021,0.287586476,33.44177508,35.10576518,10.45923139,20,20,99,79,2.131293021,2
489.0078122,9.942406248,10.19283729,12.3830873,12.38921686,0.237322617,0.213276609,10.25952385,10.25952385,0.66250119,0.28745281,33.43793014,35.09838223,10.45923139,20,20,99,79,2.131293021,2
490.0078122,9.942230211,10.18821266,12.42123347,12.3491281,0.236832822,0.215492188,10.29396422,10.29396422,0.663062013,0.287315562,33.43418644,35.09099796,10.45923139,20,20,99,79,2.131293021,2
491.0078122,9.942502518,10.18259665,12.43409295,12.33477259,0.235515703,0.215211261,10.32674819,10.32674819,0.663597753,0.28717419,33.43045436,35.08356826,10.45900648,20,20,99,79,2.131293021,2
492.0078122,9.942881952,10.17830378,12.42547192,12.36733467,0.233383305,0.213155267,10.34943871,10.34943871,0.664099927,0.287032053,33.42671588,35.07624733,10.45900648,20,20,99,79,2.131293021,2
493.0078122,9.942829893,10.17414779,12.40190403,12.40804674,0.230990208,0.210523295,10.3640025,10.3640025,0.664579854,0.286886087,33.42302964,35.06891499,10.45487488,20,20,99,79,2.131293021,2
494.0078122,9.94252475,10.17156452,12.37487239,12.41679278,0.229313063,0.208239632,10.37413919,10.37413919,0.665066194,0.286734589,33.41933771,35.0615011,10.45487488,20,20,99,79,2.131293021,2
495.0078122,9.942609819,10.17415212,12.3500261,12.39889786,0.229272254,0.206668458,10.380304,10.380304,0.665548208,0.286583026,33.41567483,35.05417994,10.45487488,20,20,99,79,2.131293021,2
496.0078122,9.942741028,10.18223537,12.32179935,12.3825205,0.231265127,0.205810083,10.38057848,10.38057848,0.666011448,0.286422804,33.41223171,35.04681609,10.44924916,20,20,99,79,2.131293021,2
497.0078122,9.941653452,10.19323503,12.29209352,12.38813153,0.234958591,0.205456245,10.37495034,10.37495034,0.666448158,0.286257135,33.40860174,35.03939625,10.44924916,20,20,99,79,2.131293021,2
498.0078122,9.93951712,10.20559413,12.2867635,12.4240148,0.239443184,0.20506438,10.36788489,10.36788489,0.666852892,0.28609107,33.40509674,35.03198994,10.44924916,20,20,99,79,2.131293021,2
499.0078122,9.938509308,10.21711148,12.32875445,12.48122128,0.243747217,0.203792311,10.36807349,10.36807349,0.667238407,0.285921589,33.40142563,35.02470915,10.44391658,20,20,99,79,2.131293021,2
500.0078122,9.939713118,10.22109611,12.39816004,12.53643606,0.247402675,0.201044408,10.38673528,10.38673528,0.667608238,0.285751531,33.39799597,35.01766313,10.44391658,20,20,99,79,2.131293021,2
501.0078122,9.941604406,10.2114948,12.45229846,12.58044822,0.25056333,0.197086943,10.4280177,10.4280177,0.66798486,0.285579614,33.39463704,35.01053477,10.44391658,20,20,99,79,2.131293021,2
502.0078122,9.942742683,10.19283898,12.47464173,12.62103398,0.253520828,0.193050716,10.48033887,10.48033887,0.66825248,0.28540703,33.39125811,35.00345046,10.4400791,20,20,99,79,2.131293021,2
503.0078122,9.943314397,10.17733203,12.47785088,12.65684184,0.256042766,0.190271927,10.5242714,10.5242714,0.66789117,0.285234314,33.38768409,34.99641749,10.4400791,20,20,99,79,2.131293021,2
504.0078122,9.943706601,10.17160356,12.47729793,12.68161652,0.257184171,0.189508316,10.54331938,10.54331938,0.667408635,0.285062542,33.38438837,34.98945492,10.4400791,20,20,99,79,2.131293021,2
505.0078122,9.943808844,10.17292346,12.47289836,12.68921611,0.255829462,0.190627715,10.5272675,10.5272675,0.666796411,0.284891595,33.38108183,34.98239175,10.43845146,20,20,99,80,2.131293021,2
506.0078122,9.943147067,10.175297,12.44936664,12.65839748,0.251669638,0.192879484,10.47796291,10.47796291,0.666051596,0.284716262,33.37783501,34.97553223,10.43845146,20,20,99,80,2.131293021,2
507.0078122,9.941347152,10.17483446,12.40375677,12.57589249,0.245766946,0.195522314,10.41095163,10.41095163,0.665175877,0.28453663,33.37455339,34.96860719,10.43845146,20,20,99,80,2.131293021,2
508.0078122,9.939361298,10.17236918,12.36249292,12.46894934,0.240166302,0.198276798,10.34574769,10.34574769,0.664177001,0.284353179,33.37132659,34.96163758,10.43938776,20,20,99,80,2.131293021,2
509.0078122,9.938725132,10.17187252,12.34925482,12.38450796,0.236798455,0.201245189,10.29686345,10.29686345,0.663028291,0.284170016,33.36818731,34.95475637,10.43938776,20,20,99,80,2.131293021,2
510.0078122,9.939162008,10.17420365,12.34613043,12.35143069,0.236445753,0.20440811,10.26826071,10.26826071,0.661720799,0.283984299,33.36510767,34.94776522,10.43938776,20,20,99,80,2.131293021,2
511.0078122,9.93904781,10.17467592,12.30756005,12.3634065,0.238379965,0.207241333,10.24968712,10.24968712,0.660233651,0.283797916,33.36206106,34.94096131,10.44300775,21,20,99,80,2.131293021,2
512.0078122,9.937877549,10.1702626,12.22234186,12.38387477,0.240866085,0.20890192,10.22577283,10.22577283,0.658598268,0.283612655,33.35902869,34.93406739,10.44300775,21,20,99,80,2.131293021,2
513.0078122,9.936519845,10.16490081,12.14536751,12.37975779,0.242303192,0.208800398,10.19275173,10.19275173,0.656834653,0.283421114,33.35596221,34.92726982,10.44300775,21,20,99,80,2.131293021,2
514.0078122,9.936029052,10.16328728,12.13644358,12.35741799,0.242241147,0.20697979,10.16114746,10.16114746,0.654908446,0.283229499,33.35301139,34.92051277,10.44300775,21,20,99,80,2.131293021,2
515.0078122,9.93694576,10.16488738,12.1862307,12.3531982,0.241392664,0.204077949,10.14326061,10.14326061,0.652815262,0.283037634,33.35002408,34.91384254,10.44929504,21,20,99,80,2.131293021,2
516.0078122,9.938679917,10.16727706,12.24140648,12.38627859,0.240658538,0.201094734,10.14516615,10.14516615,0.650555621,0.28284717,33.34714847,34.90709204,10.44929504,21,20,99,80,2.131293021,2
517.0078122,9.939878561,10.16961973,12.27402367,12.43902105,0.240226291,0.199021017,10.16838789,10.16838789,0.648118924,0.282656914,33.34449096,34.90044703,10.45814278,21,20,99,81,2.131293021,2
518.0078122,9.939996425,10.17093484,12.29476938,12.48459116,0.239598529,0.198309153,10.20610168,10.20610168,0.645512683,0.282464284,33.34176139,34.89399582,10.45814278,21,20,99,81,2.131293021,2
519.0078122,9.939856461,10.17019752,12.32161822,12.51301513,0.238237794,0.198500927,10.2387209,10.2387209,0.642742526,0.282276778,33.33908898,34.88733967,10.45814278,21,20,99,81,2.131293021,2
520.0078122,9.940467006,10.16832062,12.3515764,12.52731993,0.23602202,0.198628656,10.24973043,10.24973043,0.639813229,0.28209055,33.33644627,34.88078646,10.4693327,21,20,99,81,2.131293021,2
521.0078122,9.941914419,10.16668438,12.36495657,12.52623545,0.233205744,0.198125399,10.24431575,10.24431575,0.636718027,0.281903579,33.33381357,34.87425444,10.4693327,21,20,99,81,2.131293021,2
522.0078122,9.943560391,10.16559171,12.35512381,12.5040443,0.230191939,0.197285209,10.23879099,10.23879099,0.633464312,0.281717764,33.33111903,34.86789093,10.4693327,21,20,99,81,2.131293021,2
523.0078122,9.944860284,10.16543792,12.33681115,12.465804,0.22741175,0.196852612,10.23861093,10.23861093,0.630059559,0.281534056,33.32848198,34.86165945,10.48245124,21,20,99,81,2.131293021,2
524.0078122,9.945774651,10.16689131,12.32687267,12.42469224,0.225289414,0.197314204,10.23699814,10.23699814,0.626498963,0.281346757,33.32586391,34.85520055,10.48245124,21,20,99,81,2.131293021,2
525.0078122,9.946688522,10.16962874,12.33046554,12.38743877,0.224150851,0.198584957,10.22680462,10.22680462,0.62281738,0.281168862,33.32343188,34.8490991,10.48245124,21,20,99,81,2.131293021,2
526.0078122,9.947888227,10.17310164,12.34053321,12.35771175,0.224067581,0.20018326,10.20696982,10.20696982,0.619016729,0.280989227,33.32113676,34.84291552,10.4967691,21,20,99,81,2.131293021,2
527.0078122,9.948644985,10.17781359,12.34670006,12.34555232,0.224767916,0.201578661,10.18262146,10.18262146,0.615094475,0.280810665,33.31889455,34.83678383,10.4967691,21,20,99,81,2.131293021,2
528.0078122,9.947658446,10.18419423,12.34778764,12.35976066,0.225726174,0.202429083,10.160964,10.160964,0.611062816,0.280626096,33.31643561,34.8306688,10.4967691,21,20,99,81,2.131293021,2
529.0078122,9.944910437,10.19172859,12.35223567,12.39412627,0.226398338,0.202619682,10.14565033,10.14565033,0.606948481,0.280446452,33.31395323,34.82446711,10.51113101,21,20,99,81,2.131293021,2
530.0078122,9.941797007,10.19944546,12.36634456,12.4273117,0.226478859,0.202178246,10.1383673,10.1383673,0.602756776,0.280266474,33.31162422,34.81830949,10.51113101,21,20,99,81,2.131293021,2
531.0078122,9.939434005,10.20522431,12.384911,12.43945734,0.226063506,0.201208639,10.14331312,10.14331312,0.598520475,0.280088917,33.30915689,34.8124063,10.52391128,21,20,99,81,2.131293021,2
532.0078122,9.93803596,10.20678792,12.39628502,12.4353766,0.22562354,0.199928965,10.16327311,10.16327311,0.5942615,0.279910727,33.30687625,34.80640059,10.52391128,21,20,99,81,2.131293021,2
533.0078122,9.93769444,10.20505568,12.39645277,12.44028001,0.225728201,0.19871597,10.1951849,10.1951849,0.589987053,0.279743668,33.3045118,34.80047654,10.52391128,21,20,99,81,2.131293021,2
534.0078122,9.938718964,10.2030559,12.39523866,12.46685075,0.226616544,0.198007523,10.23304848,10.23304848,0.58572206,0.279570819,33.30207467,34.79463718,10.53308196,21,20,99,81,2.131293021,2
535.0078122,9.940704115,10.20175883,12.410272,12.51226734,0.227950838,0.198083214,10.26801296,10.26801296,0.581499549,0.279397692,33.29982596,34.78876519,10.53308196,21,20,99,81,2.131293021,2
536.0078122,9.942214884,10.19995487,12.44691992,12.56867868,0.229064506,0.198910884,10.28659655,10.28659655,0.577296648,0.27922311,33.29757872,34.78298135,10.53308196,21,20,99,81,2.131293021,2
537.0078122,9.942243956,10.19846099,12.48975276,12.60605304,0.229606477,0.200125432,10.28183772,10.28183772,0.573135864,0.279044768,33.29525076,34.77712173,10.53641297,21,20,99,81,2.131293021,2
538.0078122,9.941202727,10.20036592,12.52240023,12.59508134,0.229973458,0.201082763,10.26388239,10.26388239,0.569034282,0.278857108,33.29293683,34.77131713,10.53641297,21,20,99,81,2.131293021,2
539.0078122,9.940642338,10.20465902,12.53433475,12.56297831,0.230962253,0.20109737,10.24738224,10.24738224,0.56499916,0.278676036,33.2908467,34.76568659,10.53178477,21,20,99,81,2.131293021,2
540.0078122,9.941824792,10.20634075,12.5125234,12.55983607,0.232901931,0.19994668,10.23839019,10.23839019,0.561061958,0.278498605,33.28862238,34.75993518,10.53178477,21,20,99,81,2.131293021,2
541.0078122,9.944092662,10.20427547,12.45796137,12.58013399,0.235235541,0.198225613,10.24189513,10.24189513,0.557220071,0.278307234,33.28640686,34.75425479,10.53178477,21,20,99,81,2.131293021,2
542.0078122,9.94581167,10.20148326,12.40055612,12.58031859,0.237044457,0.19700016,10.26245467,10.26245467,0.553483299,0.278116395,33.28417941,34.74859639,10.5175566,21,20,99,81,2.131293021,2
543.0078122,9.946175259,10.19938942,12.36557978,12.54473571,0.237852047,0.19695532,10.28987379,10.28987379,0.549877687,0.277909218,33.2819125,34.7429055,10.5175566,21,20,99,81,2.131293021,2
544.0078122,9.945250311,10.19693515,12.33867013,12.4889937,0.237763104,0.197883753,10.30013294,10.30013294,0.546372049,0.277701659,33.27984828,34.73727968,10.5175566,21,20,99,81,2.131293021,2
545.0078122,9.944000229,10.19311527,12.29351455,12.42606782,0.236925973,0.198966168,10.27669185,10.27669185,0.542999226,0.277501686,33.27778524,34.73160874,10.5175566,21,20,99,81,2.131293021,2
546.0078122,9.943790703,10.18784261,12.23658541,12.36219419,0.235194437,0.199445147,10.22867093,10.22867093,0.53976139,0.277295504,33.27576873,34.72602196,10.49291108,21,20,99,81,2.131293021,2
547.0078122,9.94443264,10.18099026,12.19977364,12.31258187,0.232490047,0.19906403,10.18524184,10.18524184,0.536677386,0.277087987,33.2737557,34.72037865,10.49291108,21,20,99,81,2.131293021,2
548.0078122,9.944742097,10.17330809,12.20230597,12.29406757,0.229324759,0.198092748,10.16993187,10.16993187,0.533742343,0.276879977,33.27175023,34.71479208,10.45809699,21,20,99,81,2.131293021,2
549.0078122,9.944879484,10.16788205,12.23426077,12.30027626,0.22665967,0.197124763,10.18361454,10.18361454,0.530950785,0.276667994,33.26975645,34.70940929,10.45809699,21,20,99,81,2.131293021,2
550.0078122,9.945721148,10.16651293,12.27160524,12.30278131,0.225190773,0.196748986,10.20965785,10.20965785,0.528312034,0.27646359,33.26777846,34.70388971,10.45809699,21,20,99,81,2.131293021,2
551.0078122,9.947361536,10.16767947,12.30112091,12.28761109,0.224911577,0.197152627,10.22878021,10.22878021,0.525832633,0.276256498,33.26582037,34.69839797,10.41451735,21,20,99,81,2.131293021,2
552.0078122,9.949067732,10.17100554,12.32462761,12.27271137,0.225379967,0.197930775,10.23123486,10.23123486,0.523511661,0.276047185,33.26386369,34.69290915,10.41451735,21,20,99,81,2.131293021,2
553.0078122,9.949784218,10.17773763,12.34170009,12.28117579,0.226259153,0.198395248,10.21764845,10.21764845,0.521331761,0.275838824,33.26196667,34.68742881,10.41451735,21,20,99,81,2.131293021,2
554.0078122,9.948825572,10.18662079,12.34402588,12.31659085,0.227524151,0.198201491,10.19294828,10.19294828,0.519271732,0.275631473,33.2600484,34.6820542,10.36464945,21,20,99,81,2.131293021,2
555.0078122,9.946163744,10.19439897,12.33176147,12.36705548,0.229198305,0.197685484,10.16662299,10.16662299,0.51737597,0.275424067,33.25809122,34.67656178,10.36464945,21,20,99,81,2.131293021,2
556.0078122,9.942812621,10.19868493,12.32077973,12.41709571,0.230973417,0.197578717,10.1523124,10.1523124,0.515662208,0.275219793,33.25616148,34.67107965,10.36464945,21,20,99,81,2.131293021,2
557.0078122,9.940585332,10.19798485,12.32075879,12.4476928,0.232211815,0.198441084,10.15967644,10.15967644,0.514086142,0.275013159,33.25434532,34.66569631,10.31182286,21,20,99,81,2.131293021,2
558.0078122,9.940268136,10.19217525,12.32037304,12.43844133,0.232429702,0.200294787,10.18893096,10.18893096,0.512628259,0.274806495,33.25257428,34.6602777,10.31182286,21,20,99,81,2.131293021,2
559.0078122,9.94088395,10.18503125,12.30865672,12.3881426,0.231820862,0.20253043,10.22873419,10.22873419,0.511293144,0.274595616,33.2509306,34.65488776,10.31182286,21,20,99,81,2.131293021,2
560.0078122,9.94105306,10.18259398,12.29132038,12.32516606,0.23120023,0.204043805,10.25913697,10.25913697,0.510071113,0.274386506,33.24908127,34.64940627,10.25990722,21,20,99,81,2.131293021,2
561.0078122,9.94014049,10.18580035,12.2714668,12.28604859,0.231435212,0.20374526,10.2675843,10.2675843,0.508939055,0.274180133,33.24727499,34.64399065,10.25990722,21,20,99,81,2.131293021,2
562.0078122,9.938590883,10.18909196,12.24140775,12.29503824,0.232949333,0.201348309,10.26108123,10.26108123,0.507883359,0.273975235,33.24556158,34.63862309,10.25990722,21,20,99,81,2.131293021,2
563.0078122,9.937658188,10.18923687,12.20749026,12.3573501,0.235598656,0.19778766,10.26108748,10.26108748,0.507524507,0.273768089,33.24388829,34.63302869,10.21296651,21,20,99,80,2.131293021,2
564.0078122,9.937957177,10.18837131,12.19725302,12.45770879,0.238759309,0.194674732,10.28627464,10.28627464,0.50723956,0.273570672,33.24221806,34.62753918,10.21296651,21,20,99,80,2.131293021,2
565.0078122,9.938826875,10.18746333,12.23293703,12.56887562,0.241558605,0.193076972,10.32725169,10.32725169,0.506976135,0.273375107,33.24047304,34.62211716,10.21296651,21,20,99,80,2.131293021,2
566.0078122,9.939791077,10.18568973,12.30645857,12.65399895,0.24333848,0.192709082,10.34758318,10.34758318,0.506788488,0.273177783,33.23874846,34.61659853,10.17492233,21,20,99,80,2.131293021,2
567.0078122,9.941082348,10.18462169,12.37800278,12.6861947,0.244072862,0.19237444,10.33016533,10.33016533,0.506677628,0.272988605,33.23712745,34.61109153,10.17492233,21,20,99,80,2.131293021,2
568.0078122,9.942692399,10.18576119,12.41276972,12.6943209,0.244213032,0.191256412,10.30120274,10.30120274,0.506578173,0.272806921,33.23549343,34.60562474,10.14924622,21,20,99,80,2.131293021,2
569.0078122,9.944097936,10.18588019,12.42202178,12.73306455,0.244030536,0.189743973,10.28946787,10.28946787,0.506483502,0.272626813,33.23373332,34.60022445,10.14924622,21,20,99,80,2.131293021,2
570.0078122,9.945019068,10.17973941,12.4332406,12.78510587,0.2432547,0.189003286,10.29316946,10.29316946,0.506392365,0.272456966,33.23213851,34.59491646,10.14924622,21,20,99,80,2.131293021,2
571.0078122,9.945929299,10.16759187,12.43939085,12.77171424,0.241512984,0.189873632,10.30045569,10.30045569,0.506329809,0.272289475,33.23052828,34.58950718,10.13868115,22,20,99,79,2.131293021,2
572.0078122,9.946910614,10.15555527,12.41994532,12.67023846,0.239039441,0.192152018,10.31034552,10.31034552,0.506301619,0.272127949,33.22887277,34.58421206,10.13868115,22,20,99,79,2.131293021,2
573.0078122,9.947172403,10.14816768,12.37554699,12.54401119,0.236722888,0.194812361,10.32828526,10.32828526,0.506296094,0.271976669,33.22736984,34.57882959,10.13868115,22,20,99,79,2.131293021,2
574.0078122,9.946733186,10.14549788,12.32005123,12.46104661,0.235352854,0.196812992,10.35887189,10.35887189,0.506330317,0.271831548,33.22586205,34.57345997,10.1449851,22,20,99,79,2.131293021,2
575.0078122,9.946536293,10.14658883,12.27421016,12.43845872,0.234887964,0.197746087,10.39905263,10.39905263,0.506412517,0.271695311,33.22432729,34.56808669,10.1449851,22,20,99,79,2.131293021,2
576.0078122,9.946505831,10.15034514,12.2614252,12.44756587,0.234529619,0.197842135,10.43646105,10.43646105,0.506522326,0.271566812,33.2226305,34.56283119,10.1449851,22,20,99,79,2.131293021,2
577.0078122,9.945640919,10.15425122,12.28484475,12.4453784,0.233452744,0.197527373,10.46046233,10.46046233,0.506667852,0.271438914,33.22095085,34.55749212,10.16869763,22,21,99,79,2.131293021,2
578.0078122,9.943767176,10.15677152,12.32197573,12.41396821,0.231408381,0.197104247,10.47018584,10.47018584,0.506872865,0.271314308,33.2193167,34.55214725,10.16869763,22,21,99,79,2.131293021,2
579.0078122,9.941736102,10.15954252,12.34762473,12.37039317,0.228756494,0.196785682,10.46600314,10.46600314,0.507128813,0.271197311,33.21769611,34.5468119,10.20894747,22,21,99,79,2.131293021,2
580.0078122,9.940725382,10.16458951,12.3538657,12.33942473,0.226166053,0.196804184,10.44188336,10.44188336,0.507467277,0.271080808,33.21605883,34.54140971,10.20894747,22,21,99,79,2.131293021,2
581.0078122,9.941622902,10.17146088,12.35149219,12.33313555,0.224311888,0.197304545,10.39602741,10.39602741,0.507858534,0.270972263,33.21440536,34.5361575,10.20894747,22,21,99,79,2.131293021,2
582.0078122,9.94382092,10.17796891,12.3493963,12.35529579,0.223577412,0.198119349,10.33812719,10.33812719,0.508294752,0.270866801,33.21282008,34.53094981,10.26333778,22,21,99,78,2.131293021,2
583.0078122,9.945323313,10.18170352,12.33612912,12.39518549,0.223821164,0.19875634,10.27790829,10.27790829,0.508782155,0.270774348,33.21129436,34.52549174,10.26333778,22,21,99,78,2.131293021,2
584.0078122,9.945362167,10.18111025,12.299085,12.41929909,0.224554103,0.198703631,10.22110636,10.22110636,0.509341371,0.270677285,33.2096534,34.52040867,10.32795513,22,21,99,78,2.131293021,2
585.0078122,9.945319163,10.1767456,12.2525992,12.4086108,0.225530098,0.197733519,10.18189182,10.18189182,0.509943044,0.270589653,33.20791016,34.51505427,10.32795513,22,21,99,78,2.131293021,2
586.0078122,9.94592661,10.17081657,12.22601691,12.39538611,0.22705552,0.195890308,10.1790248,10.1790248,0.510582301,0.270504544,33.2061493,34.50982421,10.32795513,22,21,99,78,2.131293021,2
587.0078122,9.946051067,10.16497893,12.23004195,12.42932204,0.229507271,0.193300003,10.21040954,10.21040954,0.511279711,0.270426652,33.20427447,34.50458906,10.39754337,22,21,99,78,2.131293021,2
588.0078122,9.945112365,10.15925511,12.24850525,12.51487928,0.232623128,0.190218465,10.24953891,10.24953891,0.512012552,0.270351252,33.20260586,34.49934441,10.39754337,22,21,99,78,2.131293021,2
589.0078122,9.944055623,10.15297866,12.26176749,12.60228288,0.235460111,0.187277958,10.27822871,10.27822871,0.512780667,0.270266886,33.2010328,34.49412277,10.46586279,22,21,99,78,2.131293021,2
590.0078122,9.943692186,10.14712274,12.27108341,12.63703208,0.237027545,0.185438802,10.30706601,10.30706601,0.513609852,0.270181456,33.19941137,34.48894013,10.46586279,22,21,99,78,2.131293021,2
591.0078122,9.943993941,10.14430642,12.29279462,12.60882118,0.236894077,0.185487016,10.35113553,10.35113553,0.51449551,0.270105026,33.19779721,34.48377024,10.46586279,22,21,99,78,2.131293021,2
592.0078122,9.944778905,10.14543973,12.33046213,12.55139285,0.235365545,0.187509034,10.40078658,10.40078658,0.51541096,0.270028686,33.19613862,34.47877459,10.52622297,22,21,99,78,2.131293021,2
593.0078122,9.945934566,10.14920537,12.36864711,12.50099972,0.23335008,0.19074063,10.42941869,10.42941869,0.516341484,0.269950493,33.19448308,34.47366236,10.52622297,22,21,99,78,2.131293021,2
594.0078122,9.947354353,10.15469115,12.39295434,12.47473723,0.232050457,0.193814867,10.42157697,10.42157697,0.517293347,0.269874026,33.19286093,34.46854272,10.52622297,22,21,99,78,2.131293021,2
595.0078122,9.948788902,10.16092374,12.39846214,12.48798476,0.232461582,0.195353934,10.38494578,10.38494578,0.518257702,0.269798292,33.19123388,34.46345293,10.57214108,21,22,99,79,2.131293021,2
596.0078122,9.949329143,10.16465707,12.38597336,12.55316771,0.234784314,0.194759239,10.33988089,10.33988089,0.519248953,0.269717175,33.18958072,34.45828426,10.57214108,21,22,99,79,2.131293021,2
597.0078122,9.948125372,10.16304339,12.35940019,12.64683512,0.238171102,0.192653165,10.30650926,10.30650926,0.52027641,0.26963841,33.18793744,34.45313533,10.57214108,21,22,99,79,2.131293021,2
598.0078122,9.945558968,10.15807502,12.3190105,12.71125559,0.241077009,0.19047219,10.29985367,10.29985367,0.521342649,0.269571638,33.18630806,34.44807161,10.59804432,21,22,99,79,2.131293021,2
599.0078122,9.942779752,10.15438592,12.26778508,12.70632401,0.242088958,0.189451705,10.32531582,10.32531582,0.5224282,0.269493998,33.18470767,34.4429747,10.59804432,21,22,99,79,2.131293021,2
600.0078122,9.941057655,10.15413023,12.22626735,12.63931298,0.240679764,0.189844907,10.37167701,10.37167701,0.523524432,0.269411891,33.18315459,34.43802556,10.59991402,21,22,99,79,2.131293021,2
601.0078122,9.941046323,10.15669798,12.21713403,12.54345572,0.237507763,0.19091636,10.41495725,10.41495725,0.524630435,0.269333513,33.18159485,34.43291427,10.59991402,21,22,99,79,2.131293021,2
602.0078122,9.941933363,10.16105249,12.23934663,12.46096604,0.234147873,0.191590396,10.43469907,10.43469907,0.525737766,0.269255428,33.18004089,34.42783459,10.59991402,21,22,99,79,2.131293021,2
603.0078122,9.942742714,10.1671046,12.27706282,12.43943824,0.232325937,0.191235682,10.42350466,10.42350466,0.526829854,0.269183167,33.17852725,34.42284381,10.57576609,21,22,99,80,2.131293021,2
604.0078122,9.943685994,10.1751063,12.3136213,12.49550061,0.232999009,0.190023838,10.38659032,10.38659032,0.527921731,0.269110882,33.17696482,34.41776914,10.57576609,21,22,99,80,2.131293021,2
605.0078122,9.945054307,10.18277148,12.32747375,12.58392552,0.235880342,0.18863596,10.33903218,10.33903218,0.528999031,0.269026182,33.17550101,34.41279255,10.52588134,21,21,99,80,2.131293021,2
606.0078122,9.945965896,10.18572856,12.30996764,12.63776809,0.23978471,0.187649823,10.29921378,10.29921378,0.53006195,0.268906632,33.17408532,34.40780241,10.52588134,21,21,99,80,2.131293021,2
607.0078122,9.944982812,10.18361929,12.28275057,12.63591534,0.243474491,0.187175441,10.27925691,10.27925691,0.531112481,0.268795298,33.17273406,34.40285801,10.52588134,21,21,99,80,2.131293021,2
608.0078122,9.942125507,10.18143611,12.26625041,12.61187939,0.246241315,0.186957545,10.27903714,10.27903714,0.532141287,0.268677406,33.1713687,34.39794081,10.45273916,21,21,99,80,2.131293021,2
609.0078122,9.939591027,10.18323822,12.25622452,12.60597792,0.247827977,0.1866975,10.28711278,10.28711278,0.533140864,0.268551697,33.16997024,34.39272202,10.45273916,21,21,99,80,2.131293021,2
610.0078122,9.939492559,10.18811611,12.24727347,12.63028526,0.248058396,0.186290694,10.28985627,10.28985627,0.534102993,0.268424203,33.16862477,34.38773212,10.45273916,21,21,99,80,2.131293021,2
611.0078122,9.941540853,10.19199485,12.24179117,12.66222278,0.246719477,0.18592565,10.28603531,10.28603531,0.535040669,0.268292615,33.16738389,34.38292944,10.45273916,21,21,99,80,2.131293021,2
612.0078122,9.943683988,10.19181323,12.23579023,12.65744575,0.243808825,0.186067752,10.28862103,10.28862103,0.535947467,0.268155335,33.16616176,34.37799563,10.36066271,20,21,99,80,2.131293021,2
613.0078122,9.944302514,10.18709004,12.22654872,12.59307772,0.239763814,0.187260935,10.30468468,10.30468468,0.536810034,0.268016981,33.16499027,34.37306327,10.36066271,20,21,99,80,2.131293021,2
614.0078122,9.943490445,10.17841717,12.22435155,12.49677187,0.235402788,0.189758043,10.32313984,10.32313984,0.537624016,0.267873622,33.16377775,34.36813763,10.36066271,20,21,99,80,2.131293021,2
615.0078122,9.942654,10.16745198,12.23896698,12.41885667,0.231651971,0.193249345,10.33280417,10.33280417,0.538373903,0.267725351,33.16275292,34.36334943,10.25524092,20,21,99,80,2.131293021,2
616.0078122,9.942551324,10.15761408,12.26357524,12.39208312,0.229299734,0.196988481,10.3399341,10.3399341,0.53902509,0.267576745,33.16175851,34.35860584,10.25524092,20,21,99,80,2.131293021,2
617.0078122,9.942398923,10.1520326,12.28289132,12.41646657,0.22882048,0.200274343,10.35602438,10.35602438,0.539637558,0.267424972,33.16079503,34.35380247,10.25524092,20,21,99,80,2.131293021,2
618.0078122,9.941768206,10.15065703,12.29128983,12.46497908,0.230128231,0.202857404,10.38083473,10.38083473,0.540246363,0.267276023,33.15984037,34.34900542,10.14263857,20,21,99,80,2.131293021,2
619.0078122,9.941414273,10.15058499,12.29382609,12.51039861,0.232361601,0.204862204,10.40617431,10.40617431,0.540883886,0.267125614,33.1587931,34.34422491,10.14263857,20,21,99,80,2.131293021,2
620.0078122,9.941547793,10.14843199,12.29518719,12.54157829,0.234115688,0.206352551,10.42261445,10.42261445,0.541544798,0.266976573,33.15806276,34.33939891,10.14263857,20,21,99,80,2.131293021,2
621.0078122,9.941352713,10.14197053,12.29113239,12.54697465,0.234240258,0.207103004,10.42122789,10.42122789,0.542144834,0.266822641,33.15713958,34.33463843,10.02892559,20,20,99,80,2.131293021,2
622.0078122,9.940208534,10.13222091,12.27434588,12.52164808,0.232597531,0.206857907,10.4029981,10.4029981,0.542691349,0.266669384,33.15628903,34.32990228,10.02892559,20,20,99,80,2.131293021,2
623.0078122,9.938293954,10.12347924,12.25249635,12.49561518,0.230028525,0.205750619,10.38049943,10.38049943,0.543196646,0.266515161,33.15552114,34.32530725,10.02892559,20,20,99,80,2.131293021,2
624.0078122,9.936521811,10.11940736,12.24540925,12.50186546,0.227658954,0.204436334,10.36412575,10.36412575,0.543668735,0.266357143,33.1546559,34.32054268,9.919544644,20,20,99,80,2.131293021,2
625.0078122,9.935824728,10.12107475,12.25897103,12.52624645,0.226311069,0.203771344,10.36037831,10.36037831,0.544102736,0.266198717,33.15396611,34.31571172,9.919544644,20,20,99,80,2.131293021,2
626.0078122,9.93609757,10.12763778,12.27974105,12.53797856,0.226441743,0.204175861,10.38055481,10.38055481,0.544481171,0.266044456,33.15316687,34.31093076,9.919544644,20,20,99,80,2.131293021,2
627.0078122,9.936626585,10.13669513,12.30010687,12.54333277,0.228222568,0.205133387,10.42910138,10.42910138,0.544801478,0.265836069,33.15247077,34.30615793,9.919544644,20,20,99,80,2.131293021,2
628.0078122,9.937323664,10.14579299,12.32601943,12.56580795,0.231434259,0.205414119,10.48790947,10.48790947,0.545115156,0.265656652,33.15188114,34.30149708,9.818993128,20,20,99,80,2.131293021,2
629.0078122,9.938431432,10.15329109,12.35194128,12.60404669,0.235391382,0.204034021,10.53573938,10.53573938,0.545423393,0.265488637,33.15133935,34.29672926,9.818993128,20,20,99,80,2.131293021,2
630.0078122,9.939663839,10.15828469,12.35887369,12.64411341,0.239139366,0.201076322,10.57290713,10.57290713,0.545722317,0.265323902,33.15067212,34.29201034,9.818993128,20,20,99,80,2.131293021,2
631.0078122,9.940495562,10.16213377,12.34503091,12.67905118,0.241783989,0.197560428,10.60317625,10.60317625,0.546022158,0.265154753,33.15006697,34.28731275,9.730734164,20,20,99,79,2.131293021,2
632.0078122,9.940736034,10.16671232,12.32597207,12.69478178,0.242756757,0.194617569,10.61180047,10.61180047,0.546316847,0.264986999,33.14949303,34.28271302,9.730734164,20,20,99,79,2.131293021,2
633.0078122,9.940746171,10.16994099,12.30766628,12.66880388,0.242004411,0.192856199,10.5885221,10.5885221,0.546582451,0.264815349,33.14883717,34.27810723,9.730734164,20,20,99,79,2.131293021,2
634.0078122,9.941272641,10.16855851,12.28703686,12.59735799,0.240015849,0.192278541,10.55342878,10.55342878,0.546868734,0.264642941,33.14821615,34.27354636,9.65728954,20,20,99,79,2.131293021,2
635.0078122,9.942411978,10.16450135,12.26904726,12.51202489,0.237502439,0.192469768,10.53784215,10.53784215,0.547209917,0.264475414,33.14765934,34.26897747,9.65728954,20,20,99,79,2.131293021,2
636.0078122,9.943482262,10.16360818,12.2658302,12.45895335,0.234882462,0.192838492,10.55252092,10.55252092,0.547668298,0.264307575,33.14713561,34.26449785,9.65728954,20,20,99,79,2.131293021,2
637.0078122,9.944447702,10.16907504,12.28667307,12.45862038,0.23215036,0.192913064,10.58785718,10.58785718,0.548152854,0.264145031,33.14661517,34.2599891,9.600423815,20,19,99,79,2.131293021,2
638.0078122,9.94591302,10.17741456,12.33274213,12.49197737,0.229291741,0.192601039,10.6331973,10.6331973,0.548636844,0.263988252,33.14599251,34.25554855,9.600423815,20,19,99,79,2.131293021,2
639.0078122,9.948069566,10.18065901,12.38673127,12.52102787,0.226801246,0.192183152,10.68203613,10.68203613,0.549163123,0.263827532,33.14541575,34.25114933,9.561316534,21,19,99,78,2.131293021,2
640.0078122,9.950656937,10.17343623,12.41279485,12.52139984,0.225659054,0.192031524,10.71688552,10.71688552,0.549670923,0.263672936,33.14490587,34.24684962,9.561316534,21,19,99,78,2.131293021,2
641.0078122,9.953112818,10.15834174,12.39096268,12.51066751,0.226669584,0.192359257,10.70073383,10.70073383,0.550187475,0.263524394,33.14439962,34.24253859,9.561316534,21,19,99,78,2.131293021,2
642.0078122,9.95447403,10.14472929,12.34404613,12.53037826,0.229698538,0.193272998,10.6098265,10.6098265,0.550755839,0.263383699,33.14387481,34.23808648,9.540640698,21,19,99,78,2.131293021,2
643.0078122,9.953809513,10.14156274,12.31320959,12.58476251,0.233554564,0.194951005,10.47709003,10.47709003,0.551361599,0.263238356,33.14330233,34.23373874,9.540640698,21,19,99,78,2.131293021,2
644.0078122,9.95127914,10.1509734,12.31857594,12.6309288,0.236751827,0.197514934,10.37033056,10.37033056,0.551994523,0.263101852,33.1427971,34.22932227,9.538512357,21,19,99,78,2.131293021,2
645.0078122,9.947944144,10.1677382,12.35229979,12.63596871,0.238504325,0.20064298,10.3265414,10.3265414,0.552671528,0.26296604,33.14229563,34.2250187,9.538512357,21,19,99,78,2.131293021,2
646.0078122,9.94443022,10.18235257,12.39519094,12.60745203,0.239067653,0.20355219,10.33141071,10.33141071,0.55339722,0.262827144,33.14177557,34.22076101,9.538512357,21,19,99,78,2.131293021,2
647.0078122,9.941527022,10.18675675,12.42562607,12.56987238,0.239262219,0.205595787,10.35008483,10.35008483,0.554190234,0.262700883,33.14122695,34.21670866,9.554332115,21,19,99,78,2.131293021,2
648.0078122,9.940566805,10.18109205,12.4274969,12.53366254,0.239713185,0.206786411,10.35879353,10.35879353,0.555062949,0.26258067,33.14066925,34.21261156,9.554332115,21,19,99,78,2.131293021,2
649.0078122,9.941428575,10.172118,12.40775793,12.49562189,0.240380612,0.207537632,10.35923679,10.35923679,0.555991738,0.262473167,33.14020761,34.20855849,9.554332115,21,19,99,78,2.131293021,2
650.0078122,9.942470849,10.16445382,12.38629575,12.46811711,0.240663034,0.207961399,10.36968579,10.36968579,0.556938731,0.262366714,33.13952827,34.20441475,9.586586079,21,19,99,78,2.131293021,2
651.0078122,9.94284913,10.15878815,12.36901376,12.47231066,0.239960597,0.207645441,10.39457016,10.39457016,0.557902976,0.262261973,33.13895733,34.20027325,9.586586079,21,19,99,78,2.131293021,2
652.0078122,9.943085661,10.15647605,12.35648903,12.49679196,0.23823182,0.20619089,10.41387263,10.41387263,0.558895387,0.262157871,33.13847119,34.19608658,9.586586079,21,19,99,78,2.131293021,2
653.0078122,9.944074673,10.15806439,12.35414448,12.51146059,0.236048395,0.203813111,10.41065375,10.41065375,0.559937676,0.262064315,33.13793048,34.1919637,9.632696741,21,19,99,78,2.131293021,2
654.0078122,9.945935456,10.15992349,12.35486676,12.51019997,0.23414858,0.201316331,10.39138548,10.39138548,0.561019296,0.26197229,33.13738641,34.18786128,9.632696741,21,19,99,78,2.131293021,2
655.0078122,9.947195826,10.16024773,12.34263739,12.50491365,0.232932901,0.199533613,10.3711185,10.3711185,0.562114054,0.261886818,33.13677097,34.18384404,9.632696741,21,19,99,78,2.131293021,2
656.0078122,9.946299393,10.1645098,12.31388357,12.50068492,0.232309963,0.198864622,10.3515606,10.3515606,0.563268323,0.261808222,33.13618932,34.17977023,9.689007208,21,19,99,78,2.131293021,2
657.0078122,9.943994879,10.1767322,12.27566959,12.49052702,0.231898545,0.199282094,10.32644575,10.32644575,0.564529668,0.261733168,33.13559457,34.1757068,9.689007208,21,19,99,78,2.131293021,2
658.0078122,9.942567997,10.18858748,12.23959472,12.46330049,0.231304003,0.200571227,10.30510269,10.30510269,0.565824558,0.26166868,33.13498702,34.17165686,9.689007208,21,19,99,78,2.131293021,2
659.0078122,9.942743488,10.18638288,12.2285186,12.42203462,0.23028205,0.202431155,10.3069054,10.3069054,0.567129609,0.261535419,33.13436706,34.16768451,9.750948553,21,19,99,78,2.131293021,2
660.0078122,9.942976423,10.16888185,12.26256762,12.39044642,0.228827589,0.204449545,10.33164976,10.33164976,0.568446243,0.261449863,33.13369334,34.16356371,9.750948553,21,19,99,78,2.131293021,2
661.0078122,9.942105984,10.15013284,12.32831593,12.38567829,0.227220934,0.206165098,10.36301396,10.36301396,0.569764135,0.261363955,33.13303238,34.15950396,9.750948553,21,19,99,78,2.131293021,2
662.0078122,9.940947337,10.14352159,12.38823017,12.39873364,0.225941672,0.207250917,10.39567012,10.39567012,0.571082542,0.26127003,33.13228583,34.15547571,9.813391369,21,19,99,78,2.131293021,2
663.0078122,9.940709314,10.14925882,12.42309707,12.41586386,0.225428339,0.207693573,10.43425517,10.43425517,0.572386711,0.261176521,33.13157834,34.15158959,9.813391369,21,19,99,78,2.131293021,2
664.0078122,9.941407921,10.15797707,12.43935552,12.44422387,0.225863593,0.207784591,10.46916142,10.46916142,0.573682534,0.261086852,33.13078714,34.1476049,9.813391369,21,19,99,78,2.131293021,2
665.0078122,9.942163268,10.16153171,12.44005101,12.49390418,0.227100834,0.207831482,10.47486419,10.47486419,0.574972893,0.26098777,33.12994417,34.14356699,9.871133898,21,19,99,78,2.131293021,2
666.0078122,9.942196802,10.1592123,12.41665443,12.54210458,0.228753386,0.207764978,10.44253063,10.44253063,0.576256808,0.260917614,33.12910252,34.13968054,9.871133898,21,19,99,78,2.131293021,2
667.0078122,9.941719771,10.15579203,12.37029273,12.55969423,0.230364214,0.207133229,10.39913472,10.39913472,0.57753167,0.260834052,33.12824995,34.13578846,9.871133898,21,19,99,78,2.131293021,2
668.0078122,9.942019026,10.15536162,12.31975784,12.56390942,0.231558156,0.205638053,10.3788942,10.3788942,0.578762748,0.260741554,33.12738302,34.13170288,9.919444091,21,19,99,78,2.131293021,2
669.0078122,9.943849159,10.15766434,12.28108223,12.58453044,0.232090665,0.203659123,10.38726918,10.38726918,0.579966528,0.260645103,33.12663179,34.1277828,9.919444091,21,19,99,78,2.131293021,2
670.0078122,9.945962186,10.16060415,12.25917655,12.60525165,0.231843526,0.202085642,10.40619805,10.40619805,0.58115152,0.260542546,33.12581134,34.1238437,9.919444091,21,19,99,78,2.131293021,2
671.0078122,9.946766145,10.16521396,12.26732223,12.60529169,0.230907515,0.201530875,10.42501088,10.42501088,0.582288855,0.260437186,33.12493265,34.11972224,9.954559758,21,19,99,78,2.131293021,2
672.0078122,9.946716983,10.17359073,12.31656429,12.60781581,0.229714987,0.201753002,10.44870416,10.44870416,0.583440361,0.260328149,33.12397601,34.11577635,9.954559758,21,19,99,78,2.131293021,2
673.0078122,9.946857068,10.18217477,12.37473632,12.62563292,0.22896734,0.201919051,10.47514053,10.47514053,0.584575677,0.260215026,33.12308961,34.11181062,9.954559758,21,19,99,78,2.131293021,2
674.0078122,9.946427061,10.18492898,12.39105775,12.62934356,0.229243234,0.201429718,10.48396189,10.48396189,0.5857592,0.260098302,33.12218117,34.10780345,9.974060765,21,20,99,78,2.131293021,2
675.0078122,9.94451782,10.18088054,12.35625649,12.60303509,0.230579613,0.200419518,10.46058556,10.46058556,0.586939615,0.259980525,33.12116903,34.10379077,9.974060765,21,20,99,78,2.131293021,2
676.0078122,9.942112775,10.17414415,12.30897356,12.56000901,0.232463195,0.199417286,10.41805985,10.41805985,0.588036059,0.259854951,33.1201711,34.09973181,9.974060765,21,20,99,78,2.131293021,2
677.0078122,9.940578268,10.16903924,12.28842519,12.5086255,0.234233233,0.198616193,10.38354273,10.38354273,0.589087167,0.259721373,33.11919556,34.09554968,9.977054962,21,20,99,78,2.131293021,2
678.0078122,9.940107927,10.16717307,12.29769511,12.46057966,0.235482974,0.197612879,10.37402197,10.37402197,0.590111745,0.259582479,33.11807721,34.09151009,9.977054962,21,20,99,78,2.131293021,2
679.0078122,9.940670037,10.16613704,12.31308388,12.44286129,0.236088585,0.19593657,10.39279857,10.39279857,0.591040428,0.259443121,33.11705014,34.08737631,9.977054962,21,20,99,78,2.131293021,2
680.0078122,9.942376923,10.16191815,12.31957169,12.45971879,0.236001135,0.193724895,10.43153996,10.43153996,0.591867302,0.259297914,33.11592567,34.08328518,9.964156785,21,20,99,78,2.131293021,2
681.0078122,9.944748602,10.15496158,12.32513352,12.48456672,0.235136556,0.191773317,10.46376032,10.46376032,0.592678148,0.259150554,33.1148787,34.07908881,9.964156785,21,20,99,78,2.131293021,2
682.0078122,9.947150587,10.14940446,12.33870022,12.50758707,0.233492468,0.190955686,10.46020795,10.46020795,0.59350457,0.259002757,33.11380161,34.0749993,9.937275355,21,20,99,78,2.131293021,2
683.0078122,9.948790622,10.14556813,12.35177382,12.53946047,0.231337386,0.191621919,10.42258278,10.42258278,0.594310822,0.258855006,33.11278784,34.07082024,9.937275355,21,20,99,78,2.131293021,2
684.0078122,9.948469377,10.14077685,12.3533564,12.57032432,0.229201525,0.193433531,10.37952423,10.37952423,0.595074429,0.25870184,33.11171653,34.06675454,9.937275355,21,20,99,78,2.131293021,2
685.0078122,9.946423842,10.13636663,12.35016404,12.57343822,0.227589227,0.195675774,10.35077524,10.35077524,0.595795913,0.258543396,33.11062154,34.06262952,9.937275355,21,20,99,78,2.131293021,2
686.0078122,9.944767702,10.13597427,12.36065074,12.54394492,0.226682472,0.197796506,10.3350917,10.3350917,0.596473281,0.258386107,33.10968004,34.05848912,9.89926035,21,20,99,78,2.131293021,2
687.0078122,9.944813878,10.1389804,12.39117221,12.51124179,0.226313082,0.199741977,10.32374039,10.32374039,0.597109538,0.258270875,33.10859432,34.05430531,9.89926035,21,20,99,78,2.131293021,2
688.0078122,9.945948221,10.14146209,12.42682422,12.5037024,0.226120469,0.201765188,10.3103248,10.3103248,0.597696633,0.258118235,33.1074506,34.04999845,9.89926035,21,20,99,78,2.131293021,2
689.0078122,9.946985189,10.14206842,12.45491934,12.50791693,0.225685735,0.203915902,10.2914626,10.2914626,0.598317336,0.257962366,33.10636975,34.04577721,9.89926035,21,20,99,78,2.131293021,2
690.0078122,9.947143543,10.14248414,12.47996287,12.49097214,0.224672439,0.205764692,10.26647514,10.26647514,0.598986578,0.257800253,33.10541273,34.04151697,9.853474154,21,20,99,79,2.131293021,2
691.0078122,9.946350886,10.14383118,12.50166788,12.45095034,0.223045726,0.206686079,10.23839878,10.23839878,0.599607252,0.257644655,33.10441132,34.03727665,9.853474154,21,20,99,79,2.131293021,2
692.0078122,9.945242599,10.14599345,12.50916882,12.4169506,0.221184458,0.206341653,10.21249978,10.21249978,0.600193183,0.257491736,33.10335605,34.03289457,9.803365393,21,20,99,79,2.131293021,2
693.0078122,9.94461893,10.14809711,12.5055286,12.41592367,0.219671861,0.204902386,10.19236761,10.19236761,0.600762027,0.257340759,33.1022524,34.02854389,9.803365393,21,20,99,79,2.131293021,2
694.0078122,9.94502013,10.14910886,12.50919372,12.44966364,0.218924377,0.202921001,10.17598607,10.17598607,0.601254361,0.257196633,33.10123923,34.02414012,9.803365393,21,20,99,79,2.131293021,2
695.0078122,9.946670006,10.14903048,12.5250048,12.48655843,0.219047499,0.201058616,10.15791462,10.15791462,0.601679791,0.257054131,33.10022268,34.01977614,9.752111447,21,19,99,79,2.131293021,2
696.0078122,9.94906789,10.1494395,12.53597163,12.48933148,0.220021603,0.19980762,10.14111166,10.14111166,0.602002008,0.256919713,33.09927328,34.01538676,9.752111447,21,19,99,79,2.131293021,2
697.0078122,9.950974272,10.15282822,12.52959221,12.46456652,0.221899494,0.199274555,10.13856851,10.13856851,0.602282275,0.256796854,33.09824027,34.01100813,9.752111447,21,19,99,79,2.131293021,2
698.0078122,9.95149209,10.15904597,12.50282487,12.45828399,0.224702168,0.199162164,10.15599712,10.15599712,0.602582741,0.256673542,33.09733262,34.00653057,9.702377321,21,19,99,79,2.131293021,2
699.0078122,9.950445821,10.16386331,12.44959196,12.49833069,0.228110414,0.199030013,10.18257448,10.18257448,0.602847137,0.256563098,33.09647921,34.00213552,9.702377321,21,19,99,79,2.131293021,2
700.0078122,9.948129139,10.16389581,12.38082308,12.56391342,0.231352114,0.198629596,10.20367804,10.20367804,0.603123466,0.256458582,33.09557459,33.99775589,9.656209565,21,19,99,79,2.131293021,2
701.0078122,9.94564871,10.15965242,12.32827118,12.60695171,0.23352578,0.198008086,10.21581196,10.21581196,0.603435464,0.256358794,33.09454713,33.99339194,9.656209565,21,19,99,79,2.131293021,2
702.0078122,9.944401986,10.15375718,12.30913003,12.59800438,0.234156141,0.197343268,10.22186136,10.22186136,0.603741274,0.256265585,33.09350139,33.98893949,9.656209565,21,19,99,79,2.131293021,2
703.0078122,9.944917997,10.14937577,12.31888168,12.55842083,0.233509763,0.196720436,10.21930532,10.21930532,0.604035715,0.256189183,33.09249121,33.98446789,9.615053172,21,19,99,80,2.131293021,2
704.0078122,9.946557164,10.1478497,12.35168834,12.53494533,0.232370613,0.196047658,10.20810255,10.20810255,0.604311124,0.25611559,33.09143124,33.97998158,9.615053172,21,19,99,80,2.131293021,2
705.0078122,9.947862618,10.14670697,12.40039765,12.55005286,0.231450795,0.195147686,10.20196341,10.20196341,0.604566429,0.256052037,33.09032192,33.97548511,9.615053172,21,19,99,80,2.131293021,2
706.0078122,9.947593363,10.14344732,12.44698859,12.59594084,0.230906674,0.193968068,10.2122637,10.2122637,0.604848016,0.255999931,33.08927716,33.97097181,9.579854545,21,19,99,80,2.131293021,2
707.0078122,9.945867052,10.14138992,12.47950548,12.65822612,0.23033225,0.192728496,10.22909687,10.22909687,0.605114727,0.255951755,33.08829355,33.96633683,9.579854545,21,19,99,80,2.131293021,2
708.0078122,9.9438997,10.14636948,12.50339975,12.72258072,0.229182996,0.191866141,10.2376673,10.2376673,0.605327967,0.255909191,33.08727005,33.96174828,9.579854545,21,19,99,80,2.131293021,2
709.0078122,9.942574333,10.15581881,12.51533069,12.76404339,0.227299841,0.191818052,10.24282816,10.24282816,0.605521565,0.255878575,33.086206,33.95703519,9.551201434,21,19,99,80,2.131293021,2
710.0078122,9.941801144,10.15885842,12.50014276,12.75876589,0.225196234,0.192776374,10.25928467,10.25928467,0.605713987,0.255854168,33.0853289,33.95248582,9.551201434,21,19,99,80,2.131293021,2
711.0078122,9.941437312,10.15043035,12.465505,12.71968597,0.223882164,0.194514432,10.29090407,10.29090407,0.605893887,0.255843041,33.08442887,33.94797648,9.551201434,21,19,99,80,2.131293021,2
712.0078122,9.941810795,10.13682249,12.43952285,12.6893715,0.22422412,0.196357451,10.33718862,10.33718862,0.606065905,0.255837596,33.0833715,33.94350354,9.529454157,21,19,99,80,2.131293021,2
713.0078122,9.942615405,10.12590913,12.43985193,12.69276666,0.226239016,0.197397693,10.39661634,10.39661634,0.606220976,0.255838947,33.08239774,33.9390718,9.529454157,21,19,99,80,2.131293021,2
714.0078122,9.942763287,10.11853095,12.45996719,12.72760545,0.228915284,0.196972695,10.44714526,10.44714526,0.60636295,0.255849137,33.08130768,33.93457255,9.514838938,21,19,99,81,2.131293021,2
715.0078122,9.941896307,10.11111662,12.46492114,12.7757396,0.23077911,0.195125746,10.46109862,10.46109862,0.606486641,0.25586961,33.08024946,33.93005302,9.514838938,21,19,99,81,2.131293021,2
716.0078122,9.940968125,10.10413613,12.42213488,12.79702659,0.230818967,0.192542532,10.44428213,10.44428213,0.606571502,0.25589197,33.07922181,33.92555103,9.514838938,21,19,99,81,2.131293021,2
717.0078122,9.941090341,10.10272651,12.34761073,12.75490489,0.2290482,0.189902564,10.41790846,10.41790846,0.606586973,0.255922685,33.07813254,33.92104221,9.507496348,21,19,99,81,2.131293021,2
718.0078122,9.941800345,10.10850959,12.28124547,12.66296855,0.226292127,0.187258226,10.3763868,10.3763868,0.606564351,0.255955713,33.07707491,33.91651013,9.507496348,21,19,99,81,2.131293021,2
719.0078122,9.941233842,10.11628988,12.21858979,12.55861755,0.223410601,0.184191972,10.30066945,10.30066945,0.606549547,0.256045317,33.07593456,33.91190899,9.507496348,21,19,99,81,2.131293021,2
720.0078122,9.938266165,10.11899913,12.10095937,12.42416422,0.220781389,0.18056083,10.1988547,10.1988547,0.606539699,0.256102135,33.07474189,33.90741374,9.017052955,20,17,99,78,1.704790222,1
721.0078122,9.933142523,10.11223371,11.88401641,12.20616128,0.218481177,0.176894466,10.10482962,10.10482962,0.60652257,0.256160478,33.07345348,33.90298812,9.017052955,20,17,99,78,1.704790222,1
722.0078122,9.927011744,10.0959616,11.60265012,11.9221518,0.216682506,0.17398151,10.03995107,10.03995107,0.606509625,0.256223001,33.07232588,33.89867821,9.017052955,20,17,99,78,1.704790222,1
723.0078122,9.921666351,10.07529304,11.34323153,11.65995853,0.21563117,0.172255513,9.998873191,9.998873191,0.606513944,0.256286554,33.07117131,33.89408977,9.022173928,20,17,99,78,1.704790222,1
724.0078122,9.917921007,10.05801644,11.16398043,11.47822139,0.215320834,0.17174288,9.971495616,9.971495616,0.606559764,0.256352486,33.0700755,33.8895879,9.022173928,20,17,99,78,1.704790222,1
725.0078122,9.915070237,10.04898213,11.06454972,11.37882153,0.215401484,0.172400267,9.955993739,9.955993739,0.606605295,0.256419174,33.06888626,33.88515756,9.022173928,20,17,99,78,1.704790222,1
726.0078122,9.912908115,10.04693457,11.01070742,11.34189807,0.215436932,0.174134905,9.948721218,9.948721218,0.606629279,0.256480365,33.06772957,33.88051796,9.031953464,20,17,99,78,1.704790222,1
727.0078122,9.912178958,10.04713638,10.97405641,11.33645997,0.215166122,0.176447934,9.939410101,9.939410101,0.606625009,0.25654777,33.06640959,33.87599179,9.031953464,20,17,99,78,1.704790222,1
728.0078122,9.913125165,10.04629578,10.95771498,11.32510568,0.214517315,0.178353163,9.922124338,9.922124338,0.606613213,0.256613963,33.06516955,33.87159214,9.031953464,20,17,99,78,1.704790222,1
729.0078122,9.915012778,10.04445356,10.97581457,11.28689292,0.213478462,0.178888087,9.902224609,9.902224609,0.606611541,0.256685244,33.06383434,33.86715392,9.045511174,20,17,99,78,1.704790222,1
730.0078122,9.916361961,10.04298137,11.01093396,11.23490737,0.212090245,0.177690099,9.890183613,9.890183613,0.606597468,0.256758792,33.06258373,33.86277477,9.045511174,20,17,99,78,1.704790222,1
731.0078122,9.915915853,10.04207444,11.02056676,11.20484655,0.21056845,0.17511661,9.89290793,9.89290793,0.60658549,0.256824684,33.061209,33.85832189,9.045511174,20,17,99,78,1.704790222,1
732.0078122,9.914259939,10.04039186,10.98986549,11.22000894,0.209273255,0.171903343,9.908270705,9.908270705,0.60652837,0.256894048,33.05984595,33.85381136,9.061629627,20,17,99,78,1.704790222,1
733.0078122,9.913099428,10.0358945,10.9450177,11.26363683,0.20840201,0.168735631,9.924109213,9.924109213,0.606449202,0.256965429,33.05853038,33.84933264,9.061629627,20,17,99,78,1.704790222,1
734.0078122,9.912974481,10.02841644,10.91385396,11.28824958,0.207774462,0.165971967,9.92804438,9.92804438,0.606324355,0.257028873,33.0570772,33.84496014,9.061629627,20,17,99,78,1.704790222,1
735.0078122,9.913281085,10.02197427,10.91063507,11.26849612,0.207041146,0.163642174,9.92015561,9.92015561,0.606166538,0.25709584,33.05564089,33.84055813,9.078858337,20,17,99,78,1.704790222,1
736.0078122,9.913597539,10.02056085,10.94429702,11.23389689,0.206083828,0.161739292,9.909222317,9.909222317,0.606056145,0.257157932,33.05419124,33.83622317,9.078858337,20,17,99,78,1.704790222,1
737.0078122,9.914065206,10.02286154,11.00237357,11.22186246,0.205186668,0.160525193,9.900606403,9.900606403,0.605973269,0.257218854,33.05264617,33.83197749,9.078858337,20,17,99,78,1.704790222,1
738.0078122,9.914862521,10.02474525,11.04549435,11.22911908,0.204859787,0.16043702,9.895150571,9.895150571,0.60587325,0.257282424,33.05126782,33.8275738,9.095625699,20,17,99,78,1.704790222,1
739.0078122,9.915455801,10.02404605,11.04590386,11.23238763,0.205398407,0.161610099,9.893952905,9.893952905,0.605800648,0.25734185,33.04985897,33.82324874,9.095625699,20,17,99,78,1.704790222,1
740.0078122,9.915156303,10.02129515,11.01925643,11.22095833,0.206426926,0.163541029,9.898685342,9.898685342,0.605759573,0.257399899,33.0483124,33.81883306,9.095625699,20,17,99,78,1.704790222,1
741.0078122,9.914124097,10.01856553,11.00432192,11.20005151,0.206953962,0.165294017,9.909514499,9.909514499,0.605729588,0.257455388,33.04685001,33.81459231,9.110345868,20,17,99,78,1.704790222,1
742.0078122,9.913028865,10.01809585,11.02015297,11.18195401,0.206170194,0.166099263,9.9228324,9.9228324,0.605693167,0.257511263,33.04532178,33.81017535,9.110345868,20,17,99,78,1.704790222,1
743.0078122,9.912588659,10.02031721,11.05090059,11.17523517,0.204305043,0.165824535,9.930979033,9.930979033,0.605660863,0.257561822,33.04379144,33.8058344,9.110345868,20,17,99,78,1.704790222,1
744.0078122,9.912751004,10.02347906,11.06848841,11.17674391,0.20263058,0.164987697,9.930201172,9.930201172,0.605657238,0.257618593,33.04234399,33.80153313,9.121512145,20,18,99,78,1.704790222,1
745.0078122,9.912378468,10.02629657,11.06944167,11.18022121,0.20255293,0.16429371,9.926667393,9.926667393,0.605682223,0.257678485,33.04079263,33.7973577,9.121512145,20,18,99,78,1.704790222,1
746.0078122,9.911406463,10.02845146,11.07855707,11.1898912,0.204606123,0.164117827,9.926944119,9.926944119,0.605716941,0.257733011,33.03918444,33.79292524,9.121512145,20,18,99,78,1.704790222,1
747.0078122,9.911206083,10.02851984,11.10561786,11.21118515,0.208084586,0.16439004,9.929312811,9.929312811,0.60573307,0.257786729,33.03760647,33.78863191,9.127773705,20,18,99,78,1.704790222,1
748.0078122,9.911965282,10.02560099,11.11928123,11.23363116,0.211449274,0.16491022,9.931083105,9.931083105,0.605767767,0.257843748,33.03597495,33.78442024,9.127773705,20,18,99,78,1.704790222,1
749.0078122,9.91272096,10.02163238,11.08199047,11.23639688,0.213187895,0.165676395,9.93454369,9.93454369,0.605770962,0.257894032,33.03426949,33.78010967,9.127996922,20,18,99,78,1.704790222,1
750.0078122,9.91309855,10.01941293,10.99886871,11.2087359,0.21264481,0.166856249,9.938977168,9.938977168,0.605714687,0.25794905,33.03255398,33.77568938,9.127996922,20,18,99,78,1.704790222,1
751.0078122,9.9127869,10.01997751,10.91599123,11.1632947,0.210354067,0.168498279,9.936496544,9.936496544,0.605701638,0.258002301,33.03074504,33.77119715,9.127996922,20,18,99,78,1.704790222,1
752.0078122,9.911679626,10.02214529,10.87303574,11.13125185,0.207663723,0.170414255,9.9224676,9.9224676,0.605728181,0.258058378,33.02908114,33.76692644,9.12131523,20,18,99,78,1.704790222,1
753.0078122,9.911085111,10.02419207,10.87523219,11.13644113,0.205940676,0.172414191,9.902200533,9.902200533,0.605768166,0.258114777,33.02742953,33.76255614,9.12131523,20,18,99,78,1.704790222,1
754.0078122,9.912489358,10.0262691,10.91039195,11.16974307,0.205954109,0.174508596,9.883437605,9.883437605,0.605861429,0.258170031,33.02572952,33.75812507,9.12131523,20,18,99,78,1.704790222,1
755.0078122,9.915734106,10.02908642,10.96105044,11.19771585,0.2077217,0.176680247,9.870127619,9.870127619,0.605996509,0.258224125,33.0239071,33.75373009,9.12131523,20,18,99,78,1.704790222,1
756.0078122,9.919384818,10.03110144,11.00301427,11.20437503,0.210581253,0.178437291,9.864339227,9.864339227,0.60614829,0.258277141,33.02200545,33.74930541,9.107171819,20,18,99,78,1.704790222,1
757.0078122,9.921830778,10.0307835,11.02288045,11.20550711,0.213329241,0.17882277,9.866422965,9.866422965,0.606303966,0.258326617,33.02027818,33.74506113,9.107171819,20,18,99,78,1.704790222,1
758.0078122,9.921976201,10.02971711,11.02581085,11.21332955,0.214648525,0.177017263,9.874005602,9.874005602,0.606453543,0.258382738,33.01842367,33.74067868,9.107171819,20,18,99,78,1.704790222,1
759.0078122,9.919974235,10.03053664,11.01620098,11.2253911,0.213827151,0.173013637,9.885572576,9.885572576,0.606593898,0.258434216,33.01662913,33.73629052,9.085357515,20,18,99,78,1.704790222,1
760.0078122,9.917204843,10.0330819,10.98791721,11.2457585,0.211195197,0.167749184,9.901413738,9.901413738,0.60674284,0.258483542,33.01466729,33.73190183,9.085357515,20,18,99,78,1.704790222,1
761.0078122,9.914968511,10.03427815,10.93792238,11.27633096,0.207790911,0.162615141,9.917854562,9.917854562,0.60687912,0.258539271,33.01284163,33.72743429,9.085357515,20,18,99,78,1.704790222,1
762.0078122,9.913497799,10.03179937,10.88468756,11.30233443,0.204550289,0.158769496,9.925706243,9.925706243,0.607010107,0.258592938,33.01093717,33.72317313,9.0560419,20,18,99,78,1.704790222,1
763.0078122,9.912665604,10.02586222,10.86342066,11.30548405,0.201772899,0.156741867,9.919492406,9.919492406,0.607159026,0.25864321,33.00913271,33.71886028,9.0560419,20,18,99,78,1.704790222,1
764.0078122,9.913127444,10.01863213,10.89245758,11.27883031,0.199251743,0.156501883,9.905018071,9.905018071,0.60732199,0.258695999,33.00716131,33.71459476,9.019790102,20,18,99,78,1.704790222,1
765.0078122,9.915311245,10.01400421,10.94908531,11.23104169,0.196806315,0.157769204,9.89384488,9.89384488,0.607503171,0.2587509,33.00531868,33.71026784,9.019790102,20,18,99,78,1.704790222,1
766.0078122,9.917862891,10.01433572,10.98638,11.18257828,0.194673844,0.160202442,9.89334205,9.89334205,0.607634657,0.258803847,33.00334499,33.70597166,9.019790102,20,18,99,78,1.704790222,1
767.0078122,9.919006813,10.01702847,10.97428511,11.16067352,0.193422069,0.163326784,9.900815008,9.900815008,0.607751316,0.258860252,33.00130841,33.70178336,8.977552564,20,18,99,78,1.704790222,1
768.0078122,9.918211752,10.01804612,10.92889322,11.1862559,0.193526965,0.166408834,9.902697629,9.902697629,0.607895057,0.258915914,32.99938824,33.6975475,8.977552564,20,18,99,78,1.704790222,1
769.0078122,9.916120829,10.01691414,10.90029497,11.23514785,0.195067071,0.168607,9.885800681,9.885800681,0.608059658,0.258972977,32.99718933,33.6935013,8.977552564,20,18,99,78,1.704790222,1
770.0078122,9.914274309,10.01574548,10.91766901,11.23919879,0.197727854,0.169364727,9.854822722,9.854822722,0.608245949,0.259028438,32.99491364,33.68935816,8.930613447,20,18,99,78,1.704790222,1
771.0078122,9.913910496,10.01550255,10.95304957,11.17135913,0.200892578,0.168765363,9.830744125,9.830744125,0.608449298,0.259079446,32.99262583,33.68510614,8.930613447,20,18,99,78,1.704790222,1
772.0078122,9.915199932,10.01561042,10.95914245,11.08421336,0.20369487,0.167462143,9.828397936,9.828397936,0.608643325,0.259136012,32.99038809,33.68102108,8.930613447,20,18,99,78,1.704790222,1
773.0078122,9.917789017,10.01612479,10.9308278,11.03240095,0.205264577,0.166216455,9.842381989,9.842381989,0.608831201,0.259191356,32.98807887,33.67681609,8.88048782,19,18,99,79,1.704790222,1
774.0078122,9.920288839,10.01761316,10.90216212,11.01406003,0.20522783,0.165363353,9.85725457,9.85725457,0.609010541,0.259239868,32.98583753,33.67273726,8.88048782,19,18,99,79,1.704790222,1
775.0078122,9.92065874,10.02007403,10.89541701,11.0135767,0.204019193,0.16460592,9.866498509,9.866498509,0.609181166,0.259296582,32.98371563,33.66869562,8.88048782,19,18,99,79,1.704790222,1
776.0078122,9.918516389,10.02387593,10.90468689,11.04528537,0.202602997,0.163359993,9.874766454,9.874766454,0.609346956,0.259344447,32.98142385,33.66473482,8.828769884,19,18,99,79,1.704790222,1
777.0078122,9.915643146,10.02953115,10.91990704,11.11507417,0.201791379,0.161413588,9.884683439,9.884683439,0.609490615,0.259392786,32.97920607,33.66066249,8.828769884,19,18,99,79,1.704790222,1
778.0078122,9.914113241,10.03518845,10.94411857,11.18401795,0.201746705,0.159293461,9.893840124,9.893840124,0.609621675,0.259448696,32.9768878,33.65663208,8.828769884,19,18,99,79,1.704790222,1
779.0078122,9.914312678,10.03706907,10.98318126,11.20963493,0.202073582,0.157969278,9.899781741,9.899781741,0.609740668,0.259500982,32.9746494,33.65278244,8.828769884,19,18,99,79,1.704790222,1
780.0078122,9.91476359,10.03413101,11.02284885,11.19601009,0.202343271,0.158152049,9.897598974,9.897598974,0.60984804,0.259556615,32.97240016,33.648938,8.776952057,19,18,99,79,1.704790222,1
781.0078122,9.913844143,10.0299101,11.03598546,11.17832206,0.202473858,0.159758203,9.88406328,9.88406328,0.609947476,0.259613733,32.97026911,33.64496772,8.776952057,19,18,99,79,1.704790222,1
782.0078122,9.911433086,10.02855962,11.02378352,11.17389761,0.202579451,0.161963847,9.866614574,9.866614574,0.610046776,0.259661222,32.96799444,33.64099811,8.776952057,19,18,99,79,1.704790222,1
783.0078122,9.908863491,10.03026735,11.01499481,11.17160907,0.2025374,0.163804069,9.856809946,9.856809946,0.610115154,0.259712999,32.96569854,33.63703711,8.776952057,19,18,99,79,1.704790222,1
784.0078122,9.907494988,10.03136185,11.0160918,11.16249622,0.201875021,0.16485403,9.858140505,9.858140505,0.610140702,0.259759191,32.9633106,33.6330875,8.72625275,19,18,99,79,1.704790222,1
785.0078122,9.907827521,10.02937732,11.01347287,11.15373222,0.200215973,0.165359754,9.865828657,9.865828657,0.610159781,0.259803982,32.96089018,33.62923418,8.72625275,19,18,99,79,1.704790222,1
786.0078122,9.909567964,10.02617272,11.01432869,11.1543347,0.197874543,0.165770419,9.875164011,9.875164011,0.610201932,0.259850095,32.9585005,33.6253849,8.72625275,19,18,99,79,1.704790222,1
787.0078122,9.912082791,10.02528822,11.03581982,11.17035227,0.195964557,0.166258761,9.885162844,9.885162844,0.610273744,0.259894774,32.95608662,33.62154144,8.72625275,19,18,99,79,1.704790222,1
788.0078122,9.914778141,10.02800197,11.07086946,11.20558037,0.195808218,0.166708001,9.894054543,9.894054543,0.610342986,0.259932626,32.95354735,33.61773924,8.677501245,20,18,99,79,1.704790222,1
789.0078122,9.916929067,10.03201948,11.09054966,11.25406771,0.198017827,0.166958843,9.898184959,9.898184959,0.610382147,0.259977427,32.95117223,33.61409636,8.677501245,20,18,99,79,1.704790222,1
790.0078122,9.918078852,10.03341242,11.07167457,11.30206865,0.201895886,0.166860885,9.896893291,9.896893291,0.610419745,0.260012725,32.94880497,33.6102507,8.677501245,20,18,99,79,1.704790222,1
791.0078122,9.918309577,10.03042718,11.01735078,11.33289636,0.205664225,0.166160743,9.893235612,9.893235612,0.610436763,0.260050993,32.94644844,33.60652323,8.631124481,20,18,99,79,1.704790222,1
792.0078122,9.917428765,10.02563119,10.95888449,11.32957673,0.207511886,0.164642906,9.890155392,9.890155392,0.610436539,0.260082029,32.94420851,33.60282557,8.631124481,20,18,99,79,1.704790222,1
793.0078122,9.915759962,10.02250262,10.93366514,11.29289395,0.206744296,0.162553547,9.888132428,9.888132428,0.610437021,0.260114818,32.94179333,33.59906897,8.631124481,20,18,99,79,1.704790222,1
794.0078122,9.914980714,10.02063062,10.94603516,11.24388312,0.204110818,0.160726173,9.88614598,9.88614598,0.610435932,0.260149845,32.93960656,33.59526504,8.587259485,20,18,99,79,1.704790222,1
795.0078122,9.915635599,10.01754401,10.95870239,11.19769351,0.201085105,0.160002548,9.884224631,9.884224631,0.610421171,0.260185856,32.93727335,33.59150082,8.587259485,20,18,99,79,1.704790222,1
796.0078122,9.915954871,10.01335133,10.94200781,11.16162812,0.198868695,0.160482911,9.884191119,9.884191119,0.610401849,0.260221869,32.93482989,33.58769402,8.545979981,20,18,99,79,1.704790222,1
797.0078122,9.91467891,10.01069601,10.91766841,11.14886291,0.197876576,0.161428236,9.888663127,9.888663127,0.610381083,0.260263223,32.93237355,33.58390951,8.545979981,20,18,99,79,1.704790222,1
798.0078122,9.912781191,10.01181555,10.92720723,11.16895142,0.197867192,0.161956474,9.897377709,9.897377709,0.610361524,0.260295709,32.92990614,33.58022258,8.545979981,20,18,99,79,1.704790222,1
799.0078122,9.911869133,10.01614322,10.96731702,11.2109892,0.19827641,0.161768285,9.902563994,9.902563994,0.610327803,0.260327734,32.92742937,33.5763415,8.507586146,20,18,99,79,1.704790222,1
800.0078122,9.911881149,10.02044453,10.99180405,11.24136937,0.198479277,0.161224466,9.896901496,9.896901496,0.610273182,0.260357897,32.92498671,33.572651,8.507586146,20,18,99,79,1.704790222,1
801.0078122,9.911636946,10.02260331,10.9809787,11.22881977,0.198067605,0.160828225,9.885961268,9.885961268,0.610233407,0.260387927,32.92252185,33.56892848,8.507586146,20,18,99,79,1.704790222,1
802.0078122,9.911314033,10.0236863,10.96876254,11.17930407,0.197116165,0.16068142,9.880919358,9.880919358,0.610208674,0.260422215,32.91998028,33.5651271,8.47287615,20,18,99,79,1.704790222,1
803.0078122,9.911701172,10.02532314,10.98937205,11.13564669,0.196114167,0.160419602,9.884526667,9.884526667,0.61021395,0.260456777,32.91746797,33.56131493,8.47287615,20,18,99,79,1.704790222,1
804.0078122,9.912415291,10.02839931,11.03976698,11.13852008,0.195538879,0.159666713,9.892768781,9.892768781,0.610282152,0.260488821,32.91495462,33.55758018,8.47287615,20,18,99,79,1.704790222,1
805.0078122,9.912968457,10.03400599,11.10066323,11.19332583,0.195542474,0.158539066,9.90339069,9.90339069,0.610396027,0.260521549,32.91243054,33.55372815,8.44330975,20,17,99,79,1.704790222,1
806.0078122,9.913348812,10.04166913,11.15476545,11.27248101,0.196015125,0.157614101,9.916242753,9.916242753,0.610500246,0.260552412,32.90991321,33.54988966,8.44330975,20,17,99,79,1.704790222,1
807.0078122,9.91284399,10.047532,11.17954639,11.33515918,0.196789012,0.157319066,9.929608793,9.929608793,0.610612355,0.26058682,32.90747269,33.5460585,8.420994141,20,17,99,79,1.704790222,1
808.0078122,9.910358815,10.04821781,11.15968667,11.35182648,0.197749252,0.157430072,9.94223076,9.94223076,0.610737718,0.260620639,32.90491129,33.5421412,8.420994141,20,17,99,79,1.704790222,1
809.0078122,9.906679192,10.04479065,11.11393242,11.33190539,0.198824026,0.157370546,9.9537978,9.9537978,0.610954506,0.260651973,32.90239054,33.53820935,8.420994141,20,17,99,79,1.704790222,1
810.0078122,9.90451807,10.04012479,11.07643853,11.314764,0.199920192,0.157049776,9.96126255,9.96126255,0.611195897,0.260683474,32.89994848,33.53449859,8.40846732,19,17,99,79,1.704790222,1
811.0078122,9.905090369,10.03584487,11.0581312,11.32338107,0.200880238,0.157217978,9.962865142,9.962865142,0.611427551,0.260715544,32.89746704,33.53066641,8.40846732,19,17,99,79,1.704790222,1
812.0078122,9.90711294,10.03276771,11.04960752,11.34398128,0.20153605,0.158800276,9.963343281,9.963343281,0.611688514,0.260742534,32.89495859,33.52676901,8.40846732,19,17,99,79,1.704790222,1
813.0078122,9.909289473,10.0302177,11.04045203,11.34668202,0.201782447,0.161881506,9.968061501,9.968061501,0.611975678,0.260768764,32.89245803,33.5228448,8.408311292,19,17,99,79,1.704790222,1
814.0078122,9.911019424,10.02670693,11.02522131,11.32151873,0.201572997,0.16539223,9.975682684,9.975682684,0.612262682,0.260798145,32.88985451,33.51902204,8.408311292,19,17,99,79,1.704790222,1
815.0078122,9.911973348,10.02356324,11.01126986,11.29805648,0.200922285,0.167761101,9.978039429,9.978039429,0.612545887,0.260824472,32.88726724,33.51498419,8.408311292,19,17,99,79,1.704790222,1
816.0078122,9.912528688,10.02324221,11.0166317,11.30572632,0.200030651,0.167927354,9.96757246,9.96757246,0.612838856,0.260854674,32.8848119,33.51111432,8.422678106,19,17,99,79,1.704790222,1
817.0078122,9.91312494,10.02510126,11.04700762,11.32515051,0.19939647,0.165945403,9.947116224,9.947116224,0.613156968,0.260884761,32.88230577,33.50709929,8.422678106,19,17,99,79,1.704790222,1
818.0078122,9.913460108,10.02732173,11.08499016,11.3208472,0.199644157,0.162822641,9.927401901,9.927401901,0.613502112,0.260915798,32.87976207,33.50313136,8.422678106,19,17,99,79,1.704790222,1
819.0078122,9.913282779,10.02926576,11.10759588,11.29986266,0.201086869,0.159823088,9.916945083,9.916945083,0.613868769,0.260947033,32.87716327,33.49917601,8.452838608,19,17,99,79,1.704790222,1
820.0078122,9.912766942,10.03001095,11.10697432,11.30037225,0.203416766,0.157834333,9.918824944,9.918824944,0.614251101,0.260982106,32.87465977,33.49526653,8.452838608,19,17,99,79,1.704790222,1
821.0078122,9.912034869,10.02935579,11.0925704,11.34614101,0.205815891,0.157163167,9.92843175,9.92843175,0.614661089,0.261010606,32.87216143,33.49129201,8.452838608,19,17,99,79,1.704790222,1
822.0078122,9.911193856,10.02910683,11.0826588,11.42966543,0.207342158,0.157624615,9.934182026,9.934182026,0.615121333,0.261042819,32.8697335,33.4873198,8.452838608,19,17,99,79,1.704790222,1
823.0078122,9.910609047,10.02941934,11.09499027,11.50859208,0.20722843,0.158745632,9.930670263,9.930670263,0.615617318,0.261074524,32.86717377,33.48343717,8.498857499,19,17,99,80,1.704790222,1
824.0078122,9.910701985,10.02788536,11.13228409,11.5236997,0.205090804,0.160078473,9.925288121,9.925288121,0.616110428,0.261105581,32.86475636,33.47947074,8.498857499,19,17,99,80,1.704790222,1
825.0078122,9.911138087,10.02439258,11.17324605,11.45646772,0.201117003,0.161468098,9.924744856,9.924744856,0.616624763,0.261134629,32.86219281,33.47560187,8.498857499,19,17,99,80,1.704790222,1
826.0078122,9.911087004,10.02242642,11.18898897,11.35080238,0.196180369,0.162975229,9.92698974,9.92698974,0.617234254,0.261161409,32.85962157,33.47174079,8.498857499,19,17,99,80,1.704790222,1
827.0078122,9.910509866,10.02425267,11.17225051,11.26402986,0.191646732,0.16458725,9.929942384,9.929942384,0.617871812,0.261185737,32.85709989,33.46780826,8.559461314,18,17,99,80,1.704790222,1
828.0078122,9.910245891,10.02787462,11.13998962,11.22262083,0.188820339,0.166117235,9.933868665,9.933868665,0.618467414,0.26121379,32.85456844,33.46395186,8.559461314,18,17,99,80,1.704790222,1
829.0078122,9.911097997,10.02963675,11.10752796,11.22143935,0.188323794,0.167302191,9.936126294,9.936126294,0.619029782,0.261243904,32.85214416,33.46000398,8.632111709,18,17,99,80,1.704790222,1
830.0078122,9.912692898,10.02781204,11.07303341,11.23999325,0.189817337,0.167838862,9.935411698,9.935411698,0.619580075,0.261271592,32.84982006,33.45606328,8.632111709,18,17,99,80,1.704790222,1
831.0078122,9.913342245,10.02375969,11.0291933,11.25537526,0.192206036,0.167456184,9.935565896,9.935565896,0.620118805,0.261298532,32.84748372,33.45220532,8.632111709,18,17,99,80,1.704790222,1
832.0078122,9.912038755,10.02060336,10.98113698,11.25324099,0.194163312,0.166301169,9.938786472,9.938786472,0.620663607,0.261318468,32.84510986,33.44823044,8.632111709,18,17,99,80,1.704790222,1
833.0078122,9.90983352,10.0206295,10.94286785,11.23427755,0.194685028,0.165327894,9.942078503,9.942078503,0.621207785,0.26133795,32.8429007,33.44436239,8.713244057,18,17,99,81,1.704790222,1
834.0078122,9.908454403,10.02486192,10.91872363,11.20377419,0.193454482,0.165965617,9.941080904,9.941080904,0.621767449,0.261361249,32.8405968,33.44052546,8.713244057,18,17,99,81,1.704790222,1
835.0078122,9.908427445,10.03414707,10.90385262,11.16503496,0.190914146,0.169054548,9.93274829,9.93274829,0.62232139,0.261382374,32.83816024,33.43664364,8.713244057,18,17,99,81,1.704790222,1
836.0078122,9.909157942,10.04744874,10.90480857,11.13327758,0.188105907,0.174045062,9.918830627,9.918830627,0.622860483,0.261404437,32.83585649,33.4327345,8.713244057,18,17,99,81,1.704790222,1
837.0078122,9.910343381,10.0594761,10.93664643,11.12514945,0.186348793,0.179359955,9.907244003,9.907244003,0.623388071,0.261425569,32.83362289,33.42909868,8.713244057,18,17,99,81,1.704790222,1
838.0078122,9.912284451,10.0638236,10.9882772,11.13072989,0.186806978,0.183523511,9.903186061,9.903186061,0.623905919,0.261446082,32.8313467,33.42543257,8.798598067,18,18,99,81,1.704790222,1
839.0078122,9.91454681,10.05962959,11.01872976,11.13414053,0.18996273,0.185816112,9.903871502,9.903871502,0.624422838,0.26146402,32.82911587,33.42166762,8.798598067,18,18,99,81,1.704790222,1
840.0078122,9.915453414,10.05194187,11.00505818,11.1493595,0.195227804,0.185961932,9.90582875,9.90582875,0.624919391,0.261481913,32.82698396,33.41785099,8.798598067,18,18,99,81,1.704790222,1
841.0078122,9.913852569,10.0449366,10.97126909,11.19541582,0.201131739,0.183661578,9.910058437,9.910058437,0.625387891,0.261496849,32.82486714,33.41413396,8.883561928,18,18,99,81,1.704790222,1
842.0078122,9.910609686,10.03890507,10.95864896,11.25484074,0.206189116,0.178818715,9.918859968,9.918859968,0.625835736,0.26151464,32.82271575,33.41040462,8.883561928,18,18,99,81,1.704790222,1
843.0078122,9.907733283,10.03378733,10.98078803,11.30145766,0.209785077,0.172136239,9.930434893,9.930434893,0.626257758,0.261530767,32.82059473,33.40676379,8.883561928,18,18,99,81,1.704790222,1
844.0078122,9.906598888,10.03188083,11.01338826,11.34448237,0.212220444,0.165148868,9.937711663,9.937711663,0.626658026,0.261551355,32.81858886,33.40319088,8.963472031,18,18,99,81,1.704790222,1
845.0078122,9.907382274,10.03585062,11.02134176,11.40052796,0.213906865,0.159511755,9.935519519,9.935519519,0.627018535,0.26157047,32.81666705,33.39965063,8.963472031,18,18,99,81,1.704790222,1
846.0078122,9.909574559,10.04388562,10.99421997,11.45625974,0.214626399,0.156265795,9.927301461,9.927301461,0.627322755,0.261588096,32.81449612,33.39615569,8.963472031,18,18,99,81,1.704790222,1
847.0078122,9.912630133,10.04967948,10.95988347,11.48384579,0.213681967,0.155621695,9.92149869,9.92149869,0.627595646,0.26160721,32.81238234,33.39254505,8.963472031,18,18,99,81,1.704790222,1
848.0078122,9.916352412,10.04993095,10.95798645,11.46653878,0.210820194,0.157074917,9.925659613,9.925659613,0.627846287,0.261622101,32.81055609,33.3889506,9.033845474,19,18,99,81,1.704790222,1
849.0078122,9.919792789,10.04706404,10.99581277,11.41350505,0.20697838,0.159565467,9.942587929,9.942587929,0.628100944,0.261641121,32.80851204,33.38527378,9.033845474,19,18,99,81,1.704790222,1
850.0078122,9.920812803,10.04292329,11.03953626,11.3550094,0.203924065,0.161822321,9.965018725,9.965018725,0.62834851,0.261654726,32.80648628,33.3818329,9.033845474,19,18,99,81,1.704790222,1
851.0078122,9.918631707,10.03670374,11.05165935,11.31184369,0.202999065,0.163030729,9.979253292,9.979253292,0.62858061,0.261675183,32.80450193,33.37825816,9.033845474,19,18,99,81,1.704790222,1
852.0078122,9.914853878,10.02956209,11.02584817,11.29110335,0.204213776,0.163364169,9.978530745,9.978530745,0.628786242,0.261696901,32.80258892,33.37482072,9.090556977,19,18,99,81,1.704790222,1
853.0078122,9.911140207,10.02393966,10.97942474,11.30248741,0.206524405,0.163782052,9.967766007,9.967766007,0.628967348,0.261717141,32.80073931,33.3714751,9.090556977,19,18,99,81,1.704790222,1
854.0078122,9.908397164,10.01935779,10.92990392,11.33935656,0.208745572,0.165176288,9.955672398,9.955672398,0.629127176,0.261729109,32.79886982,33.36801892,9.090556977,19,18,99,81,1.704790222,1
855.0078122,9.907864725,10.01478967,10.89184222,11.36171254,0.210073223,0.1676405,9.947497635,9.947497635,0.629267238,0.261744457,32.79702167,33.36474851,9.129992909,19,18,99,81,1.704790222,1
856.0078122,9.910050876,10.01232475,10.87849063,11.33268394,0.210067328,0.170445387,9.943958414,9.943958414,0.629387814,0.261757515,32.79526191,33.36142688,9.129992909,19,18,99,81,1.704790222,1
857.0078122,9.91324799,10.01448014,10.8932341,11.26163657,0.208643794,0.172554721,9.943030461,9.943030461,0.629496302,0.26177379,32.79354427,33.3582128,9.129992909,19,18,99,81,1.704790222,1
858.0078122,9.915038376,10.02018431,10.92146219,11.18995107,0.206230922,0.173188161,9.943335836,9.943335836,0.62959513,0.261795341,32.79177848,33.35494182,9.129992909,19,18,99,81,1.704790222,1
859.0078122,9.914597453,10.02635481,10.94177931,11.1489983,0.203692351,0.172190247,9.945886284,9.945886284,0.629705427,0.261815359,32.79008199,33.35175749,9.149216773,19,18,99,81,1.704790222,1
860.0078122,9.913009883,10.03131282,10.95355307,11.14935118,0.201859688,0.170154242,9.950941757,9.950941757,0.629828391,0.26183538,32.78837131,33.3486299,9.149216773,19,18,99,81,1.704790222,1
861.0078122,9.911902792,10.03404258,10.97414378,11.18703422,0.201067157,0.168155483,9.956027792,9.956027792,0.629961647,0.261854061,32.78661971,33.34547765,9.14616462,19,18,99,81,1.704790222,1
862.0078122,9.911778531,10.03316584,11.00389715,11.23868163,0.201110106,0.167125721,9.960200965,9.960200965,0.630063339,0.261872683,32.78496378,33.34245066,9.14616462,19,18,99,81,1.704790222,1
863.0078122,9.911804407,10.02858619,11.02260988,11.27332419,0.201524497,0.167229833,9.966090325,9.966090325,0.63012199,0.261891647,32.78322453,33.33945809,9.14616462,19,18,99,81,1.704790222,1
864.0078122,9.911359061,10.02303889,11.02231246,11.2820719,0.201924388,0.167770606,9.97480405,9.97480405,0.630147079,0.261908236,32.78156625,33.33648062,9.119863433,19,19,99,81,1.704790222,1
865.0078122,9.910612238,10.02049933,11.01418933,11.2821917,0.202181212,0.167652424,9.981813998,9.981813998,0.63016172,0.261926333,32.77992771,33.33346936,9.119863433,19,19,99,81,1.704790222,1
866.0078122,9.909650597,10.02114579,11.00558637,11.29802259,0.20235257,0.166050511,9.979295322,9.979295322,0.630213343,0.261947962,32.77835313,33.3305736,9.119863433,19,19,99,81,1.704790222,1
867.0078122,9.90857082,10.02095227,10.99632386,11.34326911,0.202443881,0.16293441,9.963274378,9.963274378,0.630299017,0.261965507,32.77677571,33.32770185,9.070640496,20,19,99,81,1.704790222,1
868.0078122,9.907918534,10.01864339,10.98999453,11.40293414,0.202321291,0.159210565,9.939788781,9.939788781,0.630443658,0.261983071,32.77514628,33.32489526,9.070640496,20,19,99,81,1.704790222,1
869.0078122,9.908198143,10.0176808,10.99276654,11.43379401,0.201966781,0.156338545,9.921727656,9.921727656,0.630647195,0.262007682,32.77361391,33.32198154,9.000275963,20,19,99,81,1.704790222,1
870.0078122,9.90939081,10.02057887,11.0106123,11.40568465,0.201769899,0.155538863,9.917406086,9.917406086,0.630874537,0.262023305,32.77198405,33.31899648,9.000275963,20,19,99,81,1.704790222,1
871.0078122,9.910851637,10.02661648,11.04874851,11.33817797,0.202367664,0.157077749,9.924812916,9.924812916,0.631150001,0.262042663,32.77049289,33.31626167,9.000275963,20,19,99,81,1.704790222,1
872.0078122,9.911839296,10.03451759,11.10016769,11.28302885,0.204058075,0.160166863,9.935764845,9.935764845,0.631443298,0.26206038,32.76900956,33.31339226,8.91204894,20,19,99,80,1.704790222,1
873.0078122,9.912348965,10.04269093,11.13651677,11.27652977,0.206413172,0.163577493,9.940973196,9.940973196,0.6317673,0.262078634,32.76756811,33.31071428,8.91204894,20,19,99,80,1.704790222,1
874.0078122,9.912753725,10.04709176,11.12755343,11.30561155,0.208537307,0.166475241,9.935573694,9.935573694,0.632148572,0.262097473,32.76616281,33.30795828,8.91204894,20,19,99,80,1.704790222,1
875.0078122,9.912515066,10.04304458,11.06545543,11.3258482,0.209676166,0.168789779,9.924093036,9.924093036,0.632552473,0.262117063,32.76482517,33.30536476,8.810639691,20,18,99,80,1.704790222,1
876.0078122,9.91075037,10.03233718,10.97780394,11.30870642,0.209574626,0.170834899,9.916363479,9.916363479,0.632971262,0.262134229,32.7633814,33.30261306,8.810639691,20,18,99,80,1.704790222,1
877.0078122,9.908326144,10.02185316,10.90467595,11.2633786,0.208501761,0.172735677,9.919074078,9.919074078,0.633412717,0.262149473,32.76210339,33.29977879,8.810639691,20,18,99,80,1.704790222,1
878.0078122,9.90724895,10.01479446,10.85883508,11.21297304,0.207067259,0.174257592,9.930629062,9.930629062,0.633865284,0.262164091,32.76070034,33.29712384,8.701873488,20,18,99,80,1.704790222,1
879.0078122,9.907474552,10.01033541,10.8349765,11.17553533,0.205871471,0.175058215,9.940999388,9.940999388,0.634331375,0.262173981,32.75943701,33.294462,8.701873488,20,18,99,80,1.704790222,1
880.0078122,9.907351923,10.0096272,10.84491168,11.16203363,0.205086535,0.174891657,9.943252389,9.943252389,0.634801625,0.262187989,32.75822755,33.29167801,8.701873488,20,18,99,80,1.704790222,1
881.0078122,9.907076647,10.01545883,10.89991836,11.1697248,0.204380424,0.173593898,9.945647126,9.945647126,0.635283373,0.262202871,32.75695171,33.28890685,8.592319097,20,18,99,80,1.704790222,1
882.0078122,9.908176949,10.02631748,10.9769441,11.19028271,0.203391191,0.171106562,9.960642126,9.960642126,0.635757833,0.262216083,32.75581839,33.28619476,8.592319097,20,18,99,80,1.704790222,1
883.0078122,9.910389437,10.03517681,11.03402583,11.22924299,0.202238689,0.167686794,9.983957973,9.983957973,0.636209362,0.262227653,32.75471134,33.28337055,8.592319097,20,18,99,80,1.704790222,1
884.0078122,9.911947349,10.03657631,11.05301359,11.29739436,0.201419568,0.164053801,9.999060618,9.999060618,0.636700151,0.262243537,32.75346617,33.28050814,8.592319097,20,18,99,80,1.704790222,1
885.0078122,9.912153213,10.03275586,11.05911142,11.38579533,0.201248609,0.161155879,10.00196933,10.00196933,0.637252105,0.262255314,32.75232407,33.27755661,8.488780592,20,18,99,80,1.704790222,1
886.0078122,9.91179041,10.02978489,11.09001186,11.46875265,0.201606147,0.15962856,10.0061932,10.0061932,0.637736134,0.262271113,32.75119125,33.27457983,8.488780592,20,18,99,80,1.704790222,1
887.0078122,9.911479941,10.02994334,11.14562281,11.52059585,0.202262907,0.159419385,10.02085398,10.02085398,0.638192541,0.262289693,32.75015154,33.27157817,8.397739576,19,18,99,80,1.704790222,1
888.0078122,9.910848102,10.03110261,11.18427438,11.51451501,0.203282521,0.159979472,10.03670525,10.03670525,0.638687585,0.262302793,32.74899424,33.26855217,8.397739576,19,18,99,80,1.704790222,1
889.0078122,9.90964906,10.03114,11.17393845,11.43720006,0.204943751,0.160824867,10.03937636,10.03937636,0.639216094,0.262322305,32.74773544,33.26561676,8.397739576,19,18,99,80,1.704790222,1
890.0078122,9.908839196,10.02989876,11.13119278,11.3232724,0.207231716,0.16182434,10.027793,10.027793,0.63975673,0.262339594,32.74650273,33.2626183,8.324812647,19,18,99,80,1.704790222,1
891.0078122,9.909099776,10.02806052,11.09623248,11.23703849,0.209469105,0.162949548,10.01150849,10.01150849,0.640297755,0.262360643,32.74537213,33.25960544,8.324812647,19,18,99,80,1.704790222,1
892.0078122,9.909278706,10.02629822,11.08504911,11.20718633,0.210629676,0.163944642,9.995968814,9.995968814,0.640812689,0.262388241,32.74433117,33.25656506,8.324812647,19,18,99,80,1.704790222,1
893.0078122,9.908195409,10.02492031,11.08356749,11.20908168,0.210161132,0.164392453,9.979392138,9.979392138,0.641310092,0.262415734,32.74316851,33.25348498,8.324812647,19,18,99,80,1.704790222,1
894.0078122,9.906498208,10.0236826,11.0766865,11.21112446,0.208503338,0.164037636,9.962617157,9.962617157,0.641763679,0.262443485,32.74193356,33.25030423,8.274285447,19,17,99,80,1.704790222,1
895.0078122,9.905314114,10.02272119,11.06498044,11.20764952,0.206758716,0.162965221,9.952239033,9.952239033,0.642209873,0.262477455,32.74084757,33.24706302,8.274285447,19,17,99,80,1.704790222,1
896.0078122,9.904790659,10.02294162,11.05306426,11.20867564,0.20585822,0.161527672,9.951517296,9.951517296,0.642638267,0.262510608,32.73967703,33.2438646,8.274285447,19,17,99,80,1.704790222,1
897.0078122,9.904942562,10.02470294,11.03937021,11.22478582,0.206011284,0.160174116,9.956958675,9.956958675,0.643029943,0.262545807,32.7384769,33.24049353,8.274285447,19,17,99,80,1.704790222,1
898.0078122,9.906116767,10.02616847,11.02468869,11.25446342,0.206829058,0.159320089,9.96402285,9.96402285,0.643375609,0.262583152,32.73722869,33.23713608,8.248771707,19,17,99,80,1.704790222,1
899.0078122,9.907828724,10.0244918,11.01681025,11.27696576,0.207820377,0.159297632,9.968637675,9.968637675,0.64371009,0.262618776,32.73588104,33.23374903,8.248771707,19,17,99,80,1.704790222,1
900.0078122,9.908862557,10.02036621,11.02422971,11.27262024,0.208699507,0.160343912,9.968311479,9.968311479,0.644026316,0.262664095,32.73443501,33.23042023,8.248771707,19,17,99,80,1.704790222,1
901.0078122,9.908613386,10.01830194,11.05082657,11.24394764,0.2093044,0.162557651,9.969487066,9.969487066,0.644334497,0.262709005,32.73301201,33.22703834,8.249026994,19,17,99,80,1.704790222,1
902.0078122,9.907483649,10.02094291,11.09307139,11.21002246,0.209413258,0.165788928,9.986131147,9.986131147,0.644601551,0.262756268,32.73157906,33.22355707,8.249026994,19,17,99,80,1.704790222,1
903.0078122,9.906726973,10.0267747,11.14215863,11.19252725,0.208859123,0.169580955,10.02164256,10.02164256,0.644814833,0.262801537,32.73010488,33.22015121,8.249026994,19,17,99,80,1.704790222,1
904.0078122,9.90755686,10.03264171,11.18265535,11.20022598,0.207899547,0.173279629,10.05636908,10.05636908,0.644988834,0.262845924,32.72861156,33.21667838,8.273926793,19,17,99,80,1.704790222,1
905.0078122,9.909580267,10.03585721,11.18965168,11.21734301,0.207400259,0.176329884,10.06430415,10.06430415,0.645121448,0.262893836,32.72715091,33.21314596,8.273926793,19,17,99,80,1.704790222,1
906.0078122,9.911078937,10.03597422,11.15342366,11.22101455,0.208434934,0.178545218,10.04156165,10.04156165,0.645220305,0.262946282,32.72572153,33.20956889,8.273926793,19,17,99,80,1.704790222,1
907.0078122,9.910623138,10.03512318,11.10251486,11.21138527,0.211411305,0.180017803,10.00669577,10.00669577,0.645266147,0.262999128,32.72426337,33.20609873,8.320600915,19,17,99,81,1.704790222,1
908.0078122,9.908014901,10.03537151,11.07006254,11.20644923,0.21540211,0.180664144,9.976738914,9.976738914,0.645274523,0.263055262,32.72265376,33.20259493,8.320600915,19,17,99,81,1.704790222,1
909.0078122,9.904727524,10.03659414,11.05238478,11.21083171,0.218464451,0.179945722,9.95631038,9.95631038,0.645241984,0.263111234,32.7209744,33.19901231,8.320600915,19,17,99,81,1.704790222,1
910.0078122,9.902602298,10.03654131,11.02994165,11.21486913,0.218971156,0.177243398,9.945292454,9.945292454,0.645158721,0.263174636,32.71927386,33.19533679,8.384703251,19,17,99,81,1.704790222,1
911.0078122,9.902094284,10.03393271,11.00200046,11.22410608,0.216829143,0.172582874,9.945135254,9.945135254,0.645040589,0.263235012,32.71750845,33.19183478,8.384703251,19,17,99,81,1.704790222,1
912.0078122,9.903225029,10.03117318,10.97310355,11.25586372,0.213350396,0.166929542,9.957616987,9.957616987,0.644909319,0.263293564,32.71564378,33.18824097,8.384703251,19,17,99,81,1.704790222,1
913.0078122,9.906035196,10.03052522,10.93827592,11.30760467,0.209952295,0.161739095,9.979223795,9.979223795,0.644730981,0.263357251,32.71380244,33.18467782,8.460787814,19,17,99,81,1.704790222,1
914.0078122,9.908902837,10.03065582,10.90563482,11.36172014,0.207118202,0.158148481,10.00079811,10.00079811,0.644540535,0.263416087,32.7117967,33.18126401,8.460787814,19,17,99,81,1.704790222,1
915.0078122,9.909616401,10.02985157,10.90394629,11.40396974,0.204617441,0.156487214,10.0187049,10.0187049,0.644346705,0.263487037,32.7097483,33.17769092,8.460787814,19,17,99,81,1.704790222,1
916.0078122,9.908249379,10.02815464,10.94667116,11.41958781,0.202344546,0.156314954,10.03551807,10.03551807,0.644153446,0.263556119,32.70787992,33.17406984,8.542757365,19,17,99,81,1.704790222,1
917.0078122,9.906618031,10.02567535,11.00934567,11.40420837,0.20070833,0.156966664,10.04527426,10.04527426,0.643934405,0.263622577,32.70590261,33.17046874,8.542757365,19,17,99,81,1.704790222,1
918.0078122,9.905862913,10.0223483,11.05815964,11.38063063,0.200253087,0.158085599,10.03720556,10.03720556,0.643694029,0.263683915,32.70399067,33.16699786,8.542757365,19,17,99,81,1.704790222,1
919.0078122,9.906046644,10.01889487,11.08419134,11.37828348,0.201091418,0.15966808,10.0143447,10.0143447,0.643427525,0.263758181,32.70186233,33.16365831,8.624347468,19,17,99,81,1.704790222,1
920.0078122,9.906624169,10.01596286,11.0975154,11.4001154,0.202714647,0.161677656,9.992381809,9.992381809,0.643137988,0.26382393,32.69971098,33.16002745,8.624347468,19,17,99,81,1.704790222,1
921.0078122,9.906542737,10.01367831,11.10547288,11.42408746,0.20428611,0.16375636,9.983059771,9.983059771,0.642804972,0.2638924,32.69760149,33.15652965,8.624347468,19,17,99,81,1.704790222,1
922.0078122,9.905372524,10.01320518,11.11235894,11.43037349,0.205200339,0.165374537,9.983169148,9.983169148,0.642469925,0.263960254,32.69533138,33.1531258,8.624347468,19,17,99,81,1.704790222,1
923.0078122,9.903998604,10.01577752,11.12067351,11.41074609,0.205500374,0.166224418,9.978742265,9.978742265,0.642152478,0.264027298,32.69319704,33.14975606,8.699605246,19,18,99,81,1.704790222,1
924.0078122,9.903309609,10.01988187,11.11763928,11.36062856,0.205740029,0.166437152,9.963106116,9.963106116,0.641822777,0.264095476,32.69096175,33.14640152,8.699605246,19,18,99,81,1.704790222,1
925.0078122,9.90298664,10.0229296,11.08794218,11.28875655,0.206325346,0.166412907,9.944465377,9.944465377,0.641469614,0.264161073,32.6887236,33.14309731,8.699605246,19,18,99,81,1.704790222,1
926.0078122,9.902398733,10.02488669,11.04673739,11.2280863,0.206959757,0.166402305,9.932301502,9.932301502,0.641105755,0.264220076,32.68646396,33.13981608,8.699605246,19,18,99,81,1.704790222,1
927.0078122,9.902247826,10.02685488,11.02626878,11.21127957,0.20678876,0.166239447,9.926822419,9.926822419,0.640749235,0.264280849,32.68413476,33.13656084,8.763318758,19,18,99,81,1.704790222,1
928.0078122,9.9036067,10.027332,11.03635116,11.23846812,0.205108628,0.165574712,9.922189939,9.922189939,0.640389282,0.264342503,32.68188624,33.13333436,8.763318758,19,18,99,81,1.704790222,1
929.0078122,9.905749471,10.02377053,11.07003084,11.27939646,0.201979065,0.164427717,9.913906405,9.913906405,0.639930262,0.264399758,32.67965047,33.13030652,8.763318758,19,18,99,81,1.704790222,1
930.0078122,9.907147657,10.01742299,11.12911646,11.3020228,0.198237955,0.163374991,9.903497685,9.903497685,0.639504401,0.264458086,32.67748305,33.12718702,8.763318758,19,18,99,81,1.704790222,1
931.0078122,9.907787266,10.01282933,11.20809379,11.29573648,0.195004729,0.16303901,9.895189539,9.895189539,0.639142793,0.264514165,32.67521862,33.12393763,8.811352571,19,18,99,81,1.704790222,1
932.0078122,9.908478736,10.01217739,11.27193079,11.27087358,0.193076178,0.163471412,9.890117905,9.890117905,0.63880819,0.264568724,32.67288043,33.12080106,8.811352571,19,18,99,81,1.704790222,1
933.0078122,9.909151794,10.01295991,11.28468959,11.2428327,0.192572327,0.164207911,9.887977843,9.887977843,0.63846852,0.264622515,32.67058889,33.11768509,8.811352571,19,18,99,81,1.704790222,1
934.0078122,9.909508549,10.01208171,11.24597193,11.22256772,0.19299916,0.164878981,9.890342332,9.890342332,0.63811876,0.264677117,32.6683678,33.11455782,8.840851636,20,18,99,81,1.704790222,1
935.0078122,9.909496116,10.00969293,11.17916959,11.21948094,0.193652097,0.165549644,9.896893868,9.896893868,0.637783714,0.264727428,32.66605052,33.11134315,8.840851636,20,18,99,81,1.704790222,1
936.0078122,9.908673101,10.007667,11.10687193,11.24273192,0.19404954,0.166408981,9.901588571,9.901588571,0.637548659,0.264774583,32.66378766,33.1082206,8.840851636,20,18,99,81,1.704790222,1
937.0078122,9.907258654,10.00727387,11.05311903,11.2892527,0.194098976,0.167323909,9.899427101,9.899427101,0.637380689,0.26482443,32.66149657,33.10509719,8.850291927,20,18,99,81,1.704790222,1
938.0078122,9.906691033,10.00921376,11.0385412,11.33480694,0.19399609,0.167857994,9.894315746,9.894315746,0.637223731,0.264868624,32.65926401,33.10196287,8.850291927,20,18,99,81,1.704790222,1
939.0078122,9.907704296,10.01336727,11.06277917,11.3562538,0.194055715,0.167660506,9.894478898,9.894478898,0.637088003,0.264910949,32.65706828,33.09879285,8.839382573,20,18,99,80,1.704790222,1
940.0078122,9.909187077,10.01807467,11.11014036,11.3605151,0.194558581,0.166736632,9.904557297,9.904557297,0.636943059,0.264948635,32.65468352,33.09561974,8.839382573,20,18,99,80,1.704790222,1
941.0078122,9.90959427,10.02112581,11.16215971,11.3717038,0.195587796,0.165413106,9.925045163,9.925045163,0.636780159,0.264986152,32.65252793,33.09254731,8.839382573,20,18,99,80,1.704790222,1
942.0078122,9.908635201,10.02148225,11.19893969,11.39970478,0.196933841,0.164166959,9.955478702,9.955478702,0.636596042,0.265020798,32.65013288,33.08925911,8.808855578,20,18,99,80,1.704790222,1
943.0078122,9.906940632,10.01966168,11.20862419,11.43868682,0.19823952,0.163383073,9.995591828,9.995591828,0.636404173,0.265056963,32.64783394,33.08608567,8.808855578,20,18,99,80,1.704790222,1
944.0078122,9.9054615,10.01765329,11.20000873,11.48204465,0.199315038,0.163102863,10.03945271,10.03945271,0.636192851,0.265087815,32.64562129,33.08286472,8.808855578,20,18,99,80,1.704790222,1
945.0078122,9.905452958,10.01814985,11.18813238,11.5245728,0.200302763,0.162953706,10.07123836,10.07123836,0.635938531,0.265122092,32.64337984,33.07965216,8.760207065,20,18,99,79,1.704790222,1
946.0078122,9.907230932,10.02167686,11.16927319,11.56190298,0.201472116,0.162360952,10.07668983,10.07668983,0.635701126,0.265152319,32.64105923,33.07647124,8.760207065,20,18,99,79,1.704790222,1
947.0078122,9.909656588,10.02533223,11.13250298,11.59312209,0.202802671,0.160871264,10.05777032,10.05777032,0.635489522,0.265180288,32.63874634,33.07326115,8.760207065,20,18,99,79,1.704790222,1
948.0078122,9.911628083,10.0264535,11.09316423,11.6106508,0.203766474,0.158418154,10.02883607,10.02883607,0.635277416,0.265217922,32.63649375,33.07002498,8.695467836,20,18,99,79,1.704790222,1
949.0078122,9.912909054,10.02601715,11.08953477,11.59664166,0.203609696,0.155476913,10.00118597,10.00118597,0.635068335,0.265247265,32.63434231,33.06678853,8.695467836,20,18,99,79,1.704790222,1
950.0078122,9.913593104,10.02687017,11.13506535,11.54745164,0.201964223,0.152953124,9.978673356,9.978673356,0.634843469,0.265278181,32.63210181,33.06362653,8.61707286,20,18,99,79,1.704790222,1
951.0078122,9.914064198,10.03015691,11.19612339,11.49197262,0.199191379,0.151697753,9.963899564,9.963899564,0.634590547,0.265309257,32.62971258,33.06031706,8.61707286,20,18,99,79,1.704790222,1
952.0078122,9.915319931,10.03348283,11.23386165,11.46643194,0.196115744,0.151992009,9.957655213,9.957655213,0.634343861,0.26533346,32.62731672,33.05696478,8.61707286,20,18,99,79,1.704790222,1
953.0078122,9.917524484,10.03295155,11.2426187,11.47350184,0.193542237,0.15352326,9.956317297,9.956317297,0.634089456,0.265351971,32.62491514,33.05359005,8.527867277,20,18,99,79,1.704790222,1
954.0078122,9.919028072,10.02877084,11.23812641,11.48537213,0.19207001,0.155848817,9.959280403,9.959280403,0.633827865,0.265377855,32.62263435,33.05017434,8.527867277,20,18,99,79,1.704790222,1
955.0078122,9.91886599,10.02472717,11.23132145,11.47633871,0.192137371,0.158748888,9.974145237,9.974145237,0.633544616,0.265396945,32.62018759,33.0467536,8.527867277,20,18,99,79,1.704790222,1
956.0078122,9.917966778,10.02157855,11.22291431,11.44504865,0.193807908,0.162110464,10.00637738,10.00637738,0.633220482,0.265424923,32.61781353,33.04332423,8.431237117,20,18,99,78,1.704790222,1
957.0078122,9.916932092,10.01769765,11.21941222,11.41696608,0.196412446,0.165559738,10.042828,10.042828,0.632886558,0.26545375,32.61534041,33.03989773,8.431237117,20,18,99,78,1.704790222,1
958.0078122,9.915781006,10.01396987,11.23273021,11.40592625,0.198646862,0.168364698,10.05642827,10.05642827,0.632571133,0.265481854,32.61294356,33.03635731,8.431237117,20,18,99,78,1.704790222,1
959.0078122,9.915130895,10.01279996,11.25654725,11.38982127,0.199356527,0.169787777,10.03693179,10.03693179,0.632223103,0.265511975,32.61066068,33.03291566,8.33130028,21,18,99,78,1.704790222,1
960.0078122,9.915398991,10.0150231,11.27109962,11.35472205,0.198301692,0.169600427,10.00378489,10.00378489,0.631841645,0.26553864,32.60825245,33.0293995,8.33130028,21,18,99,78,1.704790222,1
961.0078122,9.916327346,10.01910755,11.27342089,11.31648784,0.196131651,0.168333634,9.981808104,9.981808104,0.631436872,0.265574585,32.6056583,33.02587773,8.33130028,21,18,99,78,1.704790222,1
962.0078122,9.917405263,10.0216302,11.28167276,11.28528664,0.193779512,0.167047601,9.977553246,9.977553246,0.631004991,0.265607143,32.60318577,33.02241678,8.233054895,21,18,99,78,1.704790222,1
963.0078122,9.917580488,10.01999403,11.30728982,11.26248517,0.192030267,0.166750618,9.982576962,9.982576962,0.630571313,0.265644768,32.60055635,33.01887685,8.233054895,21,18,99,78,1.704790222,1
964.0078122,9.915892764,10.01581811,11.32864132,11.26420638,0.191438666,0.167828772,9.989992145,9.989992145,0.63013638,0.265681269,32.59792543,33.01524338,8.233054895,21,18,99,78,1.704790222,1
965.0078122,9.913256798,10.01296776,11.30613444,11.30464568,0.19222234,0.169798313,9.996295611,9.996295611,0.629689619,0.265719305,32.59518018,33.01167622,8.233054895,21,18,99,78,1.704790222,1
966.0078122,9.912136291,10.01244222,11.23505017,11.36371646,0.194058234,0.171501654,9.99320481,9.99320481,0.629207432,0.265760689,32.59241669,33.00795104,8.142373296,21,18,99,78,1.704790222,1
967.0078122,9.913440957,10.01295944,11.16366326,11.39484775,0.196177159,0.171733899,9.978036162,9.978036162,0.628717097,0.265799955,32.58972066,33.00431291,8.142373296,21,18,99,78,1.704790222,1
968.0078122,9.915305759,10.01442839,11.13732195,11.37059663,0.197871025,0.170016734,9.964543349,9.964543349,0.628211056,0.265840005,32.58700101,33.00067205,8.142373296,21,18,99,78,1.704790222,1
969.0078122,9.915738885,10.01658161,11.14437332,11.31483018,0.198998993,0.166985019,9.965284802,9.965284802,0.627677305,0.265883698,32.58433662,32.99711645,8.142373296,21,18,99,78,1.704790222,1
970.0078122,9.914572267,10.01684404,11.13745332,11.2768911,0.199914477,0.163911076,9.973947144,9.973947144,0.627124278,0.265921131,32.58172035,32.99355708,8.065757271,21,18,99,78,1.704790222,1
971.0078122,9.912821711,10.01355628,11.08425071,11.28201325,0.200884097,0.161712449,9.976844002,9.976844002,0.626555292,0.265962308,32.57910548,32.98997644,8.065757271,21,18,99,78,1.704790222,1
972.0078122,9.911831552,10.01035888,10.9984757,11.32663507,0.201658988,0.16036372,9.970838437,9.970838437,0.625968472,0.266009963,32.5763048,32.98632752,8.009829441,21,18,99,78,1.704790222,1
973.0078122,9.912178083,10.01290911,10.93881439,11.39283331,0.201693579,0.159239394,9.961951522,9.961951522,0.62537311,0.266057019,32.57353794,32.98264406,8.009829441,21,18,99,78,1.704790222,1
974.0078122,9.912822202,10.02040692,10.94404338,11.44580994,0.200745439,0.157950006,9.954613874,9.954613874,0.624757393,0.266102356,32.57073921,32.97876826,8.009829441,21,18,99,78,1.704790222,1
975.0078122,9.912713841,10.02573494,10.97832212,11.45186175,0.199166773,0.156793019,9.948033057,9.948033057,0.624117326,0.266150346,32.56802793,32.9749635,7.980610813,21,18,99,78,1.704790222,1
976.0078122,9.912197043,10.02470716,10.98645516,11.40868141,0.197600797,0.15644624,9.940985057,9.940985057,0.623458552,0.266193045,32.56513954,32.97119538,7.980610813,21,18,99,78,1.704790222,1
977.0078122,9.911956931,10.01978467,10.97122316,11.35127253,0.196462657,0.157325719,9.936911783,9.936911783,0.622790454,0.266245482,32.5622724,32.96740397,7.980610813,21,18,99,78,1.704790222,1
