Time (s),Waist Acceleration,Chest Acceleration,Left Ankle Acceleration,right Ankle Acceleration,EMG_magnitude_left,EMG_magnitude_right,left wrist Acceleration,right wrist Acceleration,left wrist electrodermal,right wrist electrodermal,left wrist Temperature,right wrist Temperature,VO2,Breath Frequency,Minute Ventilation,SpO2,Heart Rate,Energy expenditures (W/kg) ,Activity Code
360.0078122,9.879748263,9.924616461,10.47426513,10.63342574,0.233261061,0.24115743,9.751172705,9.751172705,0.70148458,0.441037979,34.62395637,35.39663393,10.39249136,23,14,99,106,2.046239046,1
361.0078122,9.888101844,9.945783405,10.82079004,10.99541209,0.258013526,0.26204534,9.771756593,9.771756593,0.711533731,0.451029937,34.62430555,35.39695855,10.39249136,23,14,99,106,2.046239046,1
362.0078122,9.894368436,9.966519113,11.13917056,11.31467791,0.273601189,0.274247647,9.781254687,9.781254687,0.721615024,0.461214105,34.62463863,35.39713407,10.45769556,23,14,99,106,2.046239046,1
363.0078122,9.896666823,9.983913909,11.40236425,11.53005042,0.280458567,0.278219215,9.782750613,9.782750613,0.731783753,0.471732675,34.62505132,35.39720292,10.45769556,23,14,99,106,2.046239046,1
364.0078122,9.896382712,9.995480936,11.58417103,11.63928396,0.281481581,0.276215075,9.78297775,9.78297775,0.742117663,0.482640581,34.62546271,35.39718122,10.45769556,23,14,99,106,2.046239046,1
365.0078122,9.896411108,10.00100306,11.65396452,11.67597622,0.279760799,0.271198853,9.783258591,9.783258591,0.752287298,0.493655369,34.62575419,35.39705996,10.5826467,23,15,99,106,2.046239046,1
366.0078122,9.897415472,10.00250966,11.61154588,11.67309531,0.277746307,0.266179019,9.78020521,9.78020521,0.762318995,0.504716285,34.62605779,35.39677307,10.5826467,23,15,99,106,2.046239046,1
367.0078122,9.898436508,10.00208354,11.51570653,11.65829593,0.27736209,0.263508495,9.77240773,9.77240773,0.772188421,0.515844369,34.62655369,35.39633471,10.5826467,23,15,99,106,2.046239046,1
368.0078122,9.899216527,10.00027455,11.44445448,11.65006318,0.27959455,0.264005001,9.761508611,9.761508611,0.781895853,0.52701725,34.6269348,35.39576002,10.75706222,23,15,99,106,2.046239046,1
369.0078122,9.899537745,9.997541561,11.42458585,11.6381836,0.283712192,0.266656766,9.751043919,9.751043919,0.791420368,0.538181485,34.62726291,35.39497005,10.75706222,23,15,99,106,2.046239046,1
370.0078122,9.898625831,9.996158626,11.43001661,11.59635323,0.287541611,0.269474742,9.74566392,9.74566392,0.800727006,0.549295951,34.62762649,35.39400417,10.75706222,23,15,99,106,2.046239046,1
371.0078122,9.896772224,9.998083304,11.43524831,11.52853166,0.28904066,0.270881938,9.74671032,9.74671032,0.809793536,0.560350779,34.62801172,35.39304359,10.75706222,23,15,99,106,2.046239046,1
372.0078122,9.895339581,10.00221297,11.4402341,11.47462043,0.287706157,0.270514211,9.750652451,9.750652451,0.818620267,0.571328467,34.62833674,35.39188946,10.96700347,23,15,99,106,2.046239046,1
373.0078122,9.894967985,10.00626778,11.45547979,11.45743984,0.284625689,0.268997027,9.75428429,9.75428429,0.827170432,0.582227307,34.62871547,35.39062817,10.96700347,23,15,99,106,2.046239046,1
374.0078122,9.895294099,10.00928921,11.48171806,11.4546286,0.2815847,0.267253106,9.757541765,9.757541765,0.835421107,0.593024687,34.62908362,35.38924846,11.19641134,23,15,99,106,2.046239046,1
375.0078122,9.895656565,10.01057868,11.50111463,11.44271279,0.280165153,0.265997291,9.76096478,9.76096478,0.843338777,0.603662753,34.62950121,35.3878174,11.19641134,23,15,99,106,2.046239046,1
376.0078122,9.895835823,10.00877801,11.4881572,11.44296566,0.281198808,0.265588696,9.764025637,9.764025637,0.850968487,0.614165879,34.62979875,35.38619367,11.19641134,23,15,99,106,2.046239046,1
377.0078122,9.896368231,10.00353354,11.43773153,11.4924825,0.284464057,0.266019223,9.766179219,9.766179219,0.858315961,0.624503366,34.6301011,35.38461044,11.42879157,23,16,99,106,2.046239046,1
378.0078122,9.897993713,9.997130896,11.38318166,11.58565745,0.288756158,0.266978236,9.767157271,9.767157271,0.86534333,0.634638776,34.63044999,35.38290169,11.42879157,23,16,99,106,2.046239046,1
379.0078122,9.900948152,9.99347092,11.37366086,11.67439335,0.292545686,0.268106582,9.765958571,9.765958571,0.872043461,0.64459722,34.63075622,35.38111463,11.64882633,23,16,99,106,2.046239046,1
380.0078122,9.904488642,9.994862021,11.42487638,11.7160949,0.294805457,0.269275851,9.762261316,9.762261316,0.878390011,0.654314049,34.63114394,35.37926785,11.64882633,23,16,99,106,2.046239046,1
381.0078122,9.907240613,10.00010991,11.49916319,11.70151591,0.295175058,0.270480524,9.759023761,9.759023761,0.884386318,0.663803412,34.63154879,35.37734697,11.84371772,23,16,99,106,2.046239046,1
382.0078122,9.908119627,10.00652608,11.54166905,11.64843842,0.293466821,0.271365243,9.759696566,9.759696566,0.890074476,0.67305304,34.6319482,35.37534871,11.84371772,23,16,99,106,2.046239046,1
383.0078122,9.906870754,10.01252814,11.52846958,11.58128255,0.28950426,0.271061814,9.763023633,9.763023633,0.895463764,0.68206674,34.63238299,35.37325292,12.00412566,23,17,99,106,2.046239046,1
384.0078122,9.903947241,10.01641078,11.46927873,11.51257074,0.283698826,0.268817722,9.765342915,9.765342915,0.90054664,0.690821516,34.63289426,35.37104023,12.00412566,23,17,99,106,2.046239046,1
385.0078122,9.900309475,10.01623065,11.38248622,11.44198435,0.277408988,0.264877954,9.766183551,9.766183551,0.905334792,0.69931706,34.63342216,35.36884176,12.00412566,23,17,99,106,2.046239046,1
386.0078122,9.897216943,10.01279313,11.28766131,11.36622951,0.272416717,0.260632041,9.767569845,9.767569845,0.909774259,0.707519529,34.63401466,35.36664382,12.12463443,23,17,99,106,2.046239046,1
387.0078122,9.895579851,10.00881387,11.201877,11.29029465,0.269985708,0.257674791,9.770686251,9.770686251,0.913865973,0.715427268,34.63451522,35.36453472,12.12463443,23,17,99,106,2.046239046,1
388.0078122,9.895698627,10.00619314,11.13146584,11.23579257,0.270514057,0.256622479,9.775056808,9.775056808,0.917671157,0.723079862,34.63503553,35.36229224,12.12463443,23,17,99,106,2.046239046,1
389.0078122,9.896944215,10.00573139,11.08174799,11.22355769,0.273629019,0.256740962,9.779670819,9.779670819,0.921202227,0.730450166,34.63560871,35.36001129,12.20375376,24,17,99,105,2.046239046,1
390.0078122,9.897824858,10.00706791,11.06853236,11.24787835,0.278062008,0.256648585,9.784322281,9.784322281,0.924462496,0.737548378,34.63618691,35.35768042,12.20375376,24,17,99,105,2.046239046,1
391.0078122,9.897563633,10.00887635,11.09764177,11.28695195,0.281557372,0.255394467,9.78881534,9.78881534,0.927275084,0.744230324,34.63674828,35.35538796,12.20375376,24,17,99,105,2.046239046,1
392.0078122,9.896812938,10.01024047,11.14217979,11.32972564,0.281812662,0.25299995,9.791300432,9.791300432,0.929430808,0.750278024,34.63725526,35.35300711,12.2435205,24,17,99,105,2.046239046,1
393.0078122,9.896572965,10.01179418,11.17030255,11.37722696,0.278258675,0.250158752,9.789595724,9.789595724,0.931087548,0.755699213,34.6377762,35.35068536,12.2435205,24,17,99,105,2.046239046,1
394.0078122,9.897052193,10.01462561,11.18221762,11.42393924,0.272824879,0.247551704,9.784804481,9.784804481,0.93256476,0.760849122,34.6383097,35.34840764,12.24880755,24,17,99,105,2.046239046,1
395.0078122,9.897862227,10.01806487,11.1962385,11.45113541,0.268571584,0.245454028,9.780403875,9.780403875,0.933832118,0.765795774,34.63887705,35.34613477,12.24880755,24,17,99,105,2.046239046,1
396.0078122,9.899039634,10.02016953,11.22189763,11.44325705,0.267502915,0.243861291,9.777408962,9.777408962,0.934922537,0.770614742,34.63948072,35.34382486,12.24880755,24,17,99,105,2.046239046,1
397.0078122,9.900503324,10.01993197,11.25754983,11.40604168,0.269546643,0.242781791,9.775469276,9.775469276,0.935852647,0.775296739,34.64009776,35.34151901,12.22646471,24,17,99,105,2.046239046,1
398.0078122,9.901422338,10.01796205,11.29520748,11.36527784,0.273046331,0.242301587,9.775676378,9.775676378,0.9367229,0.779813044,34.64074851,35.33931714,12.22646471,24,17,99,105,2.046239046,1
399.0078122,9.901341628,10.01586337,11.32818622,11.34718597,0.275779283,0.242466892,9.77725045,9.77725045,0.937471416,0.784220041,34.64137831,35.33716422,12.22646471,24,17,99,105,2.046239046,1
400.0078122,9.900694712,10.01506042,11.35641621,11.35786869,0.275983879,0.243187378,9.777107662,9.777107662,0.938086837,0.788354999,34.64193532,35.33505059,12.18441407,24,17,99,105,2.046239046,1
401.0078122,9.900258336,10.01563711,11.37852393,11.38358306,0.273244762,0.244209067,9.774511909,9.774511909,0.938559837,0.792165729,34.64256309,35.3328864,12.18441407,24,17,99,105,2.046239046,1
402.0078122,9.900551722,10.0164045,11.39041926,11.40708074,0.268712408,0.245071054,9.770893486,9.770893486,0.938884708,0.795744034,34.64317224,35.33065183,12.13080461,24,17,99,105,2.046239046,1
403.0078122,9.901517496,10.01612486,11.39268084,11.41579305,0.264223673,0.245160932,9.767356849,9.767356849,0.93898445,0.798964606,34.64375662,35.32847729,12.13080461,24,17,99,105,2.046239046,1
404.0078122,9.902685833,10.01486123,11.38726404,11.40770584,0.261065888,0.244050842,9.76514801,9.76514801,0.938937019,0.801884832,34.64440392,35.32625865,12.13080461,24,17,99,105,2.046239046,1
405.0078122,9.903245055,10.01408456,11.37776421,11.39637158,0.259573988,0.241914153,9.765413389,9.765413389,0.938773385,0.804597209,34.64505573,35.32408925,12.07330351,24,17,99,105,2.046239046,1
406.0078122,9.902828782,10.01511328,11.37618699,11.39328661,0.259578538,0.239494701,9.768319299,9.768319299,0.938494868,0.807130265,34.64563485,35.32194065,12.07330351,24,17,99,105,2.046239046,1
407.0078122,9.901991546,10.01761907,11.39036949,11.38871714,0.260746516,0.237507958,9.773245279,9.773245279,0.93809768,0.809479557,34.64623799,35.31972183,12.01857118,24,17,99,104,2.046239046,1
408.0078122,9.900880112,10.02023361,11.40691007,11.37083099,0.262423956,0.236082425,9.779899151,9.779899151,0.937552465,0.811606773,34.64693249,35.31760533,12.01857118,24,17,99,104,2.046239046,1
409.0078122,9.899098795,10.02322784,11.40997624,11.35657086,0.263530393,0.234837613,9.789824478,9.789824478,0.936862647,0.813544563,34.64761215,35.31553842,11.97193799,24,17,99,104,2.046239046,1
410.0078122,9.89696161,10.02880719,11.40892926,11.37575304,0.262982354,0.233433958,9.804307372,9.804307372,0.936011109,0.815191516,34.64825815,35.31334861,11.97193799,24,17,99,104,2.046239046,1
411.0078122,9.895266186,10.03696251,11.42142111,11.43234702,0.260396149,0.231966132,9.819868798,9.819868798,0.935045791,0.816597624,34.64890137,35.31108266,11.97193799,24,17,99,104,2.046239046,1
412.0078122,9.894366472,10.04368281,11.44307912,11.50226803,0.256424621,0.230862112,9.829488333,9.829488333,0.933987703,0.817914063,34.64949004,35.30888987,11.93727538,24,17,99,104,2.046239046,1
413.0078122,9.894093421,10.04505668,11.45080518,11.55028379,0.252451915,0.230515461,9.829995686,9.829995686,0.932819633,0.819139617,34.65009001,35.30672249,11.93727538,24,17,99,104,2.046239046,1
414.0078122,9.894271609,10.04119927,11.4286351,11.54935904,0.249890395,0.231034973,9.825762835,9.825762835,0.931548976,0.820262037,34.65062557,35.3046179,11.91703469,24,17,99,104,2.046239046,1
415.0078122,9.895366451,10.03545331,11.3909033,11.50850626,0.249708113,0.232350311,9.822054009,9.822054009,0.930184314,0.821270547,34.65113596,35.30249438,11.91703469,24,17,99,104,2.046239046,1
416.0078122,9.898344663,10.03013977,11.37565158,11.46960268,0.252336949,0.234461941,9.816974715,9.816974715,0.928715244,0.822166201,34.65172203,35.30039151,11.91241295,24,17,99,104,2.046239046,1
417.0078122,9.903269509,10.02400418,11.4036596,11.46741449,0.257518903,0.237424332,9.80571136,9.80571136,0.927117278,0.822880661,34.65244355,35.29814015,11.91241295,24,17,99,104,2.046239046,1
418.0078122,9.908583461,10.01564516,11.44995255,11.50093044,0.263866934,0.240976476,9.791105443,9.791105443,0.925412731,0.823424013,34.65314639,35.29599157,11.91241295,24,17,99,104,2.046239046,1
419.0078122,9.912217736,10.00818122,11.47002937,11.53680608,0.268803357,0.244260368,9.782014823,9.782014823,0.923627245,0.823852472,34.65376007,35.29389021,11.92359699,24,17,99,104,2.046239046,1
420.0078122,9.913000877,10.00682527,11.44905872,11.54249223,0.269639064,0.246062876,9.782410071,9.782410071,0.921750964,0.824141264,34.65440304,35.29173041,11.92359699,24,17,99,104,2.046239046,1
421.0078122,9.911161073,10.01194356,11.40483284,11.51920092,0.265301664,0.245439039,9.789948327,9.789948327,0.919811974,0.824328981,34.65521671,35.28960405,11.95003441,24,17,99,104,2.046239046,1
422.0078122,9.907566095,10.01874854,11.35264244,11.49264585,0.25717986,0.242215098,9.801504382,9.801504382,0.917785999,0.824405419,34.65608468,35.28745139,11.95003441,24,17,99,104,2.046239046,1
423.0078122,9.902728572,10.02429805,11.29869549,11.47826598,0.248276214,0.237094034,9.813972134,9.813972134,0.9156043,0.824202586,34.65692701,35.28531985,11.99068399,24,17,99,104,2.046239046,1
424.0078122,9.89718917,10.02988678,11.25391637,11.4689611,0.241485132,0.231408688,9.823997748,9.823997748,0.913130115,0.82368536,34.65769411,35.2831411,11.99068399,24,17,99,104,2.046239046,1
425.0078122,9.892265328,10.0356403,11.22529129,11.45484779,0.238337432,0.226612132,9.829181937,9.829181937,0.91074449,0.823092986,34.6585217,35.28084326,11.99068399,24,17,99,104,2.046239046,1
426.0078122,9.889268602,10.03826648,11.20757689,11.44415804,0.23889814,0.223757785,9.828909075,9.828909075,0.908350732,0.822456537,34.65938629,35.27856218,12.04420775,24,17,99,104,2.046239046,1
427.0078122,9.888560701,10.03634758,11.19975767,11.45610598,0.242307168,0.223086001,9.82537931,9.82537931,0.905951917,0.82177616,34.66006912,35.27625184,12.04420775,24,17,99,104,2.046239046,1
428.0078122,9.88957964,10.03304698,11.21572155,11.49538792,0.247375178,0.224016022,9.821938417,9.821938417,0.903513883,0.820998321,34.66086395,35.27400155,12.10908228,23,17,99,104,2.046239046,1
429.0078122,9.89099386,10.03172197,11.26563105,11.54347895,0.25281472,0.225523231,9.820271767,9.820271767,0.901063718,0.820210138,34.66175142,35.27179001,12.10908228,23,17,99,104,2.046239046,1
430.0078122,9.89173469,10.03258868,11.33186744,11.57107018,0.257370533,0.22668132,9.82108534,9.82108534,0.898602295,0.819460095,34.66256413,35.26960139,12.10908228,23,17,99,104,2.046239046,1
431.0078122,9.891940723,10.034056,11.37486065,11.55011867,0.260208177,0.227071552,9.824873062,9.824873062,0.896112084,0.818626226,34.6633975,35.2672646,12.18362641,23,17,99,104,2.046239046,1
432.0078122,9.892201149,10.03418414,11.36865747,11.4750967,0.261286826,0.226917478,9.828858645,9.828858645,0.8935919,0.817698036,34.66435396,35.26484052,12.18362641,23,17,99,104,2.046239046,1
433.0078122,9.89286065,10.03078137,11.32245367,11.38214343,0.261206746,0.226969433,9.825340698,9.825340698,0.891066444,0.816722628,34.6654058,35.26235063,12.26596156,23,17,99,104,2.046239046,1
434.0078122,9.894541714,10.02250693,11.26177288,11.3245504,0.260687794,0.228181773,9.809788845,9.809788845,0.888541665,0.815682369,34.6664507,35.25983504,12.26596156,23,17,99,104,2.046239046,1
435.0078122,9.897891253,10.0113024,11.20345632,11.32946003,0.260189028,0.231241671,9.790593117,9.790593117,0.886006392,0.814574804,34.66743233,35.25741579,12.26596156,23,17,99,104,2.046239046,1
436.0078122,9.901584154,10.00272825,11.16341742,11.38372621,0.259747754,0.23614944,9.781982058,9.781982058,0.883459556,0.813481074,34.66841745,35.25501867,12.35393838,23,17,99,104,2.046239046,1
437.0078122,9.902910198,10.00128287,11.16930935,11.44543312,0.258954558,0.24211031,9.786997026,9.786997026,0.880889921,0.812345034,34.66949418,35.25254088,12.35393838,23,17,99,104,2.046239046,1
438.0078122,9.901643758,10.00597717,11.23309088,11.47334399,0.257217082,0.247815211,9.796641751,9.796641751,0.878337393,0.811164036,34.67061726,35.24995775,12.44507145,23,18,99,104,2.046239046,1
439.0078122,9.899872937,10.01261055,11.32040791,11.46286287,0.25427341,0.251791646,9.806220005,9.806220005,0.875819486,0.810033548,34.67179401,35.24737713,12.44507145,23,18,99,104,2.046239046,1
440.0078122,9.898391205,10.01830464,11.37477903,11.446552,0.250498737,0.252811612,9.823268692,9.823268692,0.873308547,0.808878987,34.67289703,35.24471411,12.44507145,23,18,99,104,2.046239046,1
441.0078122,9.896468035,10.02197667,11.3708429,11.45499046,0.246766398,0.250316382,9.853728566,9.853728566,0.870778278,0.807672545,34.67402753,35.24206515,12.53652393,23,18,99,104,2.046239046,1
442.0078122,9.893905188,10.02284155,11.33050082,11.48968801,0.244002899,0.244783845,9.882718908,9.882718908,0.868251788,0.806442816,34.67519301,35.23944457,12.53652393,23,18,99,104,2.046239046,1
443.0078122,9.891940377,10.0206844,11.28962485,11.53385795,0.242631084,0.237714674,9.882721225,9.882721225,0.865722951,0.80517639,34.67639769,35.23682926,12.53652393,23,18,99,104,2.046239046,1
444.0078122,9.891984532,10.01704705,11.26632527,11.57086139,0.242191747,0.231136956,9.848336986,9.848336986,0.863200497,0.803920965,34.67751624,35.23425975,12.62517207,23,18,99,104,2.046239046,1
445.0078122,9.893547893,10.01463246,11.26581668,11.58803737,0.241600927,0.226863512,9.804717726,9.804717726,0.860678627,0.80267535,34.67861385,35.23167043,12.62517207,23,18,99,104,2.046239046,1
446.0078122,9.89503262,10.01487094,11.29324486,11.58220575,0.240055722,0.225808872,9.776466512,9.776466512,0.858163519,0.801388073,34.67967837,35.22904343,12.62517207,23,18,99,104,2.046239046,1
447.0078122,9.895900322,10.01661,11.34214881,11.56540565,0.237812891,0.227678607,9.767626909,9.767626909,0.855644277,0.800072408,34.68084921,35.2263214,12.70776063,23,18,99,104,2.046239046,1
448.0078122,9.896394563,10.01784081,11.38650581,11.55352508,0.236092168,0.231293479,9.770543513,9.770543513,0.853131514,0.798692868,34.68210238,35.22365174,12.70776063,23,18,99,104,2.046239046,1
449.0078122,9.896851079,10.01824998,11.41048449,11.5503191,0.236196232,0.235358136,9.778870821,9.778870821,0.850637128,0.797330443,34.6833377,35.22097356,12.70776063,23,18,99,104,2.046239046,1
450.0078122,9.897833551,10.01928029,11.43404903,11.54252711,0.238463321,0.238970157,9.791471616,9.791471616,0.8481427,0.795974268,34.68449176,35.21823926,12.78113678,23,18,99,104,2.046239046,1
451.0078122,9.89930376,10.02187739,11.4766492,11.51223454,0.241686301,0.241523284,9.808904174,9.808904174,0.845672164,0.794590844,34.68554901,35.21549485,12.78113678,23,18,99,104,2.046239046,1
452.0078122,9.900137427,10.02568944,11.51212686,11.46824995,0.243524053,0.242474846,9.828121034,9.828121034,0.843204171,0.793167397,34.68663844,35.21276512,12.78113678,23,18,99,104,2.046239046,1
453.0078122,9.899283096,10.03035435,11.4996128,11.44736181,0.242038839,0.241604614,9.841612388,9.841612388,0.840756591,0.791730749,34.68769998,35.21006852,12.84252937,23,18,99,104,2.046239046,1
454.0078122,9.897161364,10.03476616,11.43752925,11.4634636,0.23722853,0.239380794,9.843798414,9.843798414,0.83833646,0.79030676,34.68865398,35.20730184,12.84252937,23,18,99,104,2.046239046,1
455.0078122,9.895297011,10.0360208,11.36014593,11.49253998,0.231077827,0.236863195,9.838331415,9.838331415,0.835965744,0.788913058,34.68961912,35.20449189,12.84252937,23,18,99,104,2.046239046,1
456.0078122,9.894506021,10.0324406,11.3056651,11.51392498,0.22610922,0.235207657,9.832821928,9.832821928,0.833651296,0.78751866,34.69051733,35.20165513,12.88982589,23,18,99,105,2.046239046,1
457.0078122,9.894500057,10.02557998,11.2920807,11.52395862,0.223954274,0.235211481,9.827667265,9.827667265,0.831376676,0.78611223,34.6913041,35.19889801,12.88982589,23,18,99,105,2.046239046,1
458.0078122,9.894954144,10.01831244,11.30940207,11.51993423,0.225045686,0.237042774,9.819431534,9.819431534,0.829079148,0.784680609,34.69210946,35.19605733,12.92179672,23,18,99,105,2.046239046,1
459.0078122,9.895943069,10.01308614,11.33924683,11.50686676,0.229043332,0.240087941,9.810537719,9.810537719,0.826774969,0.78322168,34.69297592,35.19318455,12.92179672,23,18,99,105,2.046239046,1
460.0078122,9.897746782,10.01032846,11.36842281,11.50834645,0.235110927,0.24305273,9.806127915,9.806127915,0.824447118,0.781839264,34.69379246,35.19039385,12.93822381,23,18,99,105,2.046239046,1
461.0078122,9.900653593,10.00906593,11.38424641,11.53906552,0.241892357,0.244568397,9.806957333,9.806957333,0.822157378,0.780541198,34.69445519,35.1876351,12.93822381,23,18,99,105,2.046239046,1
462.0078122,9.904578084,10.00962294,11.38678945,11.57540392,0.247681291,0.244103104,9.81117057,9.81117057,0.819873563,0.779345644,34.69515482,35.18499972,12.93822381,23,18,99,105,2.046239046,1
463.0078122,9.90842147,10.01168784,11.39136023,11.58623056,0.250990966,0.242375428,9.817335187,9.817335187,0.817623527,0.778143516,34.69589112,35.18233378,12.93990907,23,18,99,105,2.046239046,1
464.0078122,9.910507364,10.01328129,11.4059583,11.58246637,0.251114756,0.240703501,9.82390453,9.82390453,0.815390675,0.77695499,34.69655989,35.17958772,12.93990907,23,18,99,105,2.046239046,1
465.0078122,9.909877832,10.01518502,11.43047677,11.6007926,0.248213679,0.239866003,9.829162441,9.829162441,0.813180403,0.775783669,34.69708836,35.17684568,12.92856033,23,18,99,105,2.046239046,1
466.0078122,9.906882445,10.0200456,11.4641444,11.64748168,0.243119479,0.239571888,9.831074871,9.831074871,0.81099384,0.774621684,34.69766931,35.17413806,12.92856033,23,18,99,105,2.046239046,1
467.0078122,9.903094554,10.02642717,11.49501162,11.68680302,0.237124587,0.238982787,9.826928459,9.826928459,0.80883012,0.773448926,34.69815951,35.17150027,12.90657559,23,18,99,104,2.046239046,1
468.0078122,9.900141359,10.02905381,11.50062354,11.68527995,0.231800156,0.237574203,9.81624973,9.81624973,0.806683736,0.772300338,34.69857978,35.16887216,12.90657559,23,18,99,104,2.046239046,1
469.0078122,9.898584488,10.02556684,11.46790745,11.64725206,0.228621297,0.235481905,9.804331267,9.804331267,0.804560791,0.771192407,34.69903809,35.16620685,12.90657559,23,18,99,104,2.046239046,1
470.0078122,9.897908033,10.0198245,11.40467426,11.60206751,0.228396027,0.23323881,9.798642459,9.798642459,0.802465063,0.770143546,34.69937644,35.16357289,12.87676441,23,18,99,104,2.046239046,1
471.0078122,9.896897846,10.01700916,11.33324935,11.57643806,0.230834584,0.231348702,9.800805589,9.800805589,0.800388496,0.769100536,34.69963753,35.16096549,12.87676441,23,18,99,104,2.046239046,1
472.0078122,9.894480366,10.01796122,11.28043777,11.57594842,0.234642419,0.230059977,9.806035551,9.806035551,0.798346955,0.768090176,34.70005142,35.15831095,12.87676441,23,18,99,104,2.046239046,1
473.0078122,9.890693768,10.01978026,11.26987196,11.57883566,0.238200682,0.22943723,9.810387178,9.810387178,0.796325097,0.767070852,34.70035855,35.15570132,12.84205398,23,18,99,104,2.046239046,1
474.0078122,9.886902858,10.02000657,11.30150542,11.5602099,0.240469678,0.229562784,9.813713233,9.813713233,0.794310256,0.766064402,34.70059717,35.15314802,12.84205398,23,18,99,104,2.046239046,1
475.0078122,9.885202129,10.01853746,11.34839018,11.52054675,0.241530367,0.230527752,9.81498055,9.81498055,0.79230675,0.765015959,34.70095758,35.15063365,12.80522643,23,18,99,104,2.046239046,1
476.0078122,9.886621508,10.01655734,11.3881508,11.48097176,0.242318789,0.232149389,9.810464195,9.810464195,0.790323616,0.763939218,34.70125762,35.14813168,12.80522643,23,18,99,104,2.046239046,1
477.0078122,9.89005995,10.01417798,11.41684796,11.46055677,0.243665082,0.23385014,9.799407258,9.799407258,0.788346169,0.762913968,34.70141975,35.14555297,12.80522643,23,18,99,104,2.046239046,1
478.0078122,9.893342729,10.01008623,11.41807985,11.46530389,0.245471368,0.235047237,9.786549272,9.786549272,0.786393772,0.761941896,34.70144178,35.14296054,12.76872336,23,18,99,104,2.046239046,1
479.0078122,9.895119921,10.00493058,11.37480067,11.49494945,0.246841798,0.235669494,9.776818415,9.776818415,0.784471842,0.76101491,34.70162985,35.14027226,12.76872336,23,18,99,104,2.046239046,1
480.0078122,9.895602301,10.00250119,11.31401021,11.54631762,0.247028477,0.236223586,9.771830721,9.771830721,0.782574358,0.760130097,34.70182932,35.13769256,12.73453604,23,18,99,103,2.046239046,1
481.0078122,9.895742643,10.00473981,11.28226893,11.60557602,0.246158042,0.237347079,9.77184697,9.77184697,0.78069143,0.759245622,34.70194805,35.13513967,12.73453604,23,18,99,103,2.046239046,1
482.0078122,9.896608128,10.00926301,11.29095792,11.65478417,0.245096965,0.239332832,9.776247184,9.776247184,0.778835042,0.758381501,34.70208552,35.13258879,12.73453604,23,18,99,103,2.046239046,1
483.0078122,9.899146094,10.01371406,11.3236856,11.68418397,0.244781985,0.241926617,9.78260211,9.78260211,0.777012028,0.757580944,34.70222542,35.13001967,12.70418059,23,18,99,103,2.046239046,1
484.0078122,9.903200335,10.01760807,11.36661271,11.68406502,0.245711015,0.244422851,9.788394969,9.788394969,0.775215267,0.756781648,34.70226556,35.12741826,12.70418059,23,18,99,103,2.046239046,1
485.0078122,9.90701066,10.01960405,11.39883766,11.64871988,0.247864954,0.246032247,9.791828522,9.791828522,0.773427456,0.755977042,34.70236548,35.12484639,12.70418059,23,18,99,103,2.046239046,1
486.0078122,9.908473436,10.01848558,11.3925707,11.59846642,0.25080274,0.246309964,9.791500712,9.791500712,0.77165548,0.755210585,34.70250622,35.12230601,12.67873941,23,18,99,103,2.046239046,1
487.0078122,9.906954941,10.01586551,11.34755057,11.56475733,0.253682726,0.245290042,9.788555796,9.788555796,0.76991187,0.754476508,34.70275283,35.11987238,12.67873941,23,18,99,103,2.046239046,1
488.0078122,9.903786015,10.01381542,11.29447283,11.55772916,0.255416858,0.24332501,9.787089542,9.787089542,0.76819108,0.75376514,34.70290947,35.11729892,12.65893952,23,18,99,103,2.046239046,1
489.0078122,9.901280061,10.01233543,11.26218199,11.56818649,0.255233247,0.240959963,9.790041575,9.790041575,0.766477303,0.75304204,34.70307206,35.11468307,12.65893952,23,18,99,103,2.046239046,1
490.0078122,9.900762202,10.01100951,11.25600392,11.58100579,0.25327638,0.238857834,9.796769799,9.796769799,0.764777111,0.752227509,34.70333538,35.11206852,12.65893952,23,18,99,103,2.046239046,1
491.0078122,9.901105019,10.01002582,11.25913106,11.58264395,0.250462124,0.237471066,9.804548355,9.804548355,0.763093764,0.751441083,34.70349374,35.10948873,12.64523505,24,18,99,103,2.046239046,1
492.0078122,9.900093463,10.00945649,11.25038615,11.56948991,0.247585888,0.236644594,9.810367542,9.810367542,0.761441154,0.750700491,34.70354707,35.10700063,12.64523505,24,18,99,103,2.046239046,1
493.0078122,9.8968835,10.00979296,11.22263337,11.54446656,0.244625745,0.235737757,9.812574394,9.812574394,0.759809449,0.749931697,34.70367417,35.10452394,12.63786718,24,18,99,102,2.046239046,1
494.0078122,9.8928789,10.01170491,11.18439146,11.51300567,0.24107551,0.234401524,9.811808983,9.811808983,0.75816476,0.749123622,34.70380895,35.10207664,12.63786718,24,18,99,102,2.046239046,1
495.0078122,9.89065716,10.01437611,11.15240364,11.48530159,0.236828399,0.233132568,9.809734164,9.809734164,0.756544897,0.748300763,34.70388136,35.09945378,12.63786718,24,18,99,102,2.046239046,1
496.0078122,9.891149306,10.01619352,11.14757255,11.46647158,0.232507177,0.232839383,9.807105246,9.807105246,0.754937847,0.74744105,34.70402452,35.09676034,12.63688716,24,18,99,102,2.046239046,1
497.0078122,9.892854178,10.01663081,11.18133136,11.44933168,0.228989351,0.233869725,9.803252937,9.803252937,0.753357637,0.746536219,34.70429883,35.09418745,12.63688716,24,18,99,102,2.046239046,1
498.0078122,9.89420203,10.0161972,11.23325142,11.42925981,0.226885318,0.235637534,9.798918671,9.798918671,0.751796183,0.74563542,34.70447434,35.09157109,12.64214354,24,18,99,102,2.046239046,1
499.0078122,9.895053157,10.01643421,11.26720325,11.41642929,0.226497248,0.237198493,9.79837531,9.79837531,0.750205883,0.744623859,34.70459137,35.0889386,12.64214354,24,18,99,102,2.046239046,1
500.0078122,9.896460913,10.01911058,11.27569533,11.42019062,0.227929318,0.238000845,9.803334363,9.803334363,0.748640705,0.743588664,34.70465429,35.08632585,12.64214354,24,18,99,102,2.046239046,1
501.0078122,9.899301552,10.02260161,11.27408812,11.43593193,0.230909152,0.238054279,9.807122754,9.807122754,0.747125121,0.742582916,34.7047124,35.08367212,12.65324859,24,18,99,102,2.046239046,1
502.0078122,9.903140253,10.02237304,11.26828719,11.46067992,0.234532775,0.237610716,9.803340937,9.803340937,0.745640367,0.741573502,34.70480194,35.08103401,12.65324859,24,18,99,102,2.046239046,1
503.0078122,9.906438667,10.01766294,11.26240462,11.49737788,0.237466441,0.236861062,9.797064884,9.797064884,0.744181347,0.740563157,34.70496064,35.07835748,12.66954763,24,18,99,102,2.046239046,1
504.0078122,9.90732222,10.01343069,11.27294785,11.54306188,0.238633009,0.235860461,9.798344213,9.798344213,0.742748865,0.739512737,34.70515126,35.07564212,12.66954763,24,18,99,102,2.046239046,1
505.0078122,9.905177425,10.01412815,11.31042225,11.59203207,0.237722958,0.234604693,9.80885733,9.80885733,0.741330929,0.738395185,34.70544816,35.07286715,12.66954763,24,18,99,102,2.046239046,1
506.0078122,9.901123487,10.01936635,11.35973946,11.63252914,0.235166083,0.233134185,9.821721803,9.821721803,0.739940786,0.737274475,34.70563682,35.07007338,12.69011546,24,18,99,102,2.046239046,1
507.0078122,9.896651256,10.02585719,11.39273862,11.64651641,0.231803202,0.231629956,9.829256433,9.829256433,0.738558402,0.736156777,34.70586125,35.06729108,12.69011546,24,18,99,102,2.046239046,1
508.0078122,9.89301236,10.02971393,11.39500723,11.63023154,0.228732179,0.230438145,9.826211494,9.826211494,0.7371693,0.734997798,34.70595243,35.06444224,12.69011546,24,18,99,102,2.046239046,1
509.0078122,9.890875268,10.02708539,11.37263345,11.59177557,0.227196884,0.229944113,9.812597074,9.812597074,0.735793207,0.733847716,34.70607045,35.06152582,12.71379703,24,18,99,102,2.046239046,1
510.0078122,9.890491746,10.01780361,11.33891834,11.5404674,0.228067749,0.23031921,9.798126933,9.798126933,0.734444714,0.732660791,34.70626748,35.0586565,12.71379703,24,18,99,102,2.046239046,1
511.0078122,9.892276651,10.00876977,11.30756243,11.49427275,0.231050847,0.231341527,9.796303938,9.796303938,0.73309445,0.731444719,34.70656255,35.05571696,12.73929631,24,18,99,102,2.046239046,1
512.0078122,9.895429664,10.00727863,11.28960889,11.46869194,0.234508711,0.232497055,9.811885375,9.811885375,0.731764242,0.730239295,34.70681525,35.0527532,12.73929631,24,18,99,102,2.046239046,1
513.0078122,9.897541869,10.01208129,11.28453063,11.46823968,0.236444483,0.233304285,9.836438889,9.836438889,0.730445708,0.729010637,34.70705534,35.04976814,12.73929631,24,18,99,102,2.046239046,1
514.0078122,9.897124422,10.01617292,11.29086391,11.49746809,0.235913575,0.233549957,9.853905933,9.853905933,0.729128446,0.727667378,34.70740139,35.04671904,12.76530205,24,19,99,102,2.046239046,1
515.0078122,9.895172392,10.01465134,11.31288655,11.54873618,0.23352187,0.233221102,9.853435762,9.853435762,0.727776583,0.726299444,34.7076729,35.04366815,12.76530205,24,19,99,102,2.046239046,1
516.0078122,9.893805943,10.00811921,11.33834532,11.59972016,0.23065634,0.232297428,9.838544517,9.838544517,0.726464107,0.724991069,34.70784052,35.0406608,12.79062694,24,19,99,102,2.046239046,1
517.0078122,9.893634562,10.00200434,11.34608687,11.64711397,0.228374451,0.230720293,9.821644936,9.821644936,0.725150824,0.723711826,34.7081535,35.03760384,12.79062694,24,19,99,102,2.046239046,1
518.0078122,9.893384052,10.00178693,11.33670315,11.70246896,0.226976766,0.228600753,9.8126606,9.8126606,0.723839356,0.722407357,34.70843842,35.0345364,12.81432955,24,19,99,102,2.046239046,1
519.0078122,9.892203699,10.00749652,11.32311901,11.75309998,0.226256448,0.22639333,9.812622087,9.812622087,0.722549675,0.721072172,34.70863527,35.03145817,12.81432955,24,19,99,102,2.046239046,1
520.0078122,9.890511411,10.01432072,11.30924353,11.77106603,0.225937822,0.224811508,9.8153092,9.8153092,0.721262235,0.719584373,34.70893212,35.02827994,12.8357909,24,19,99,102,2.046239046,1
521.0078122,9.888794362,10.0180263,11.29390356,11.75032725,0.225877367,0.224467204,9.81563734,9.81563734,0.719972239,0.718110438,34.70930936,35.0251326,12.8357909,24,19,99,102,2.046239046,1
522.0078122,9.887634674,10.01817174,11.27819396,11.70727369,0.226004426,0.22546127,9.814187895,9.814187895,0.718694693,0.716578411,34.70960776,35.02186706,12.8357909,24,19,99,102,2.046239046,1
523.0078122,9.887845358,10.0172159,11.26303038,11.66516901,0.226220279,0.227269426,9.81277952,9.81277952,0.717418014,0.715078377,34.70990962,35.01856932,12.85472611,24,19,99,102,2.046239046,1
524.0078122,9.889112375,10.01745446,11.24884716,11.6447192,0.226437533,0.229075112,9.811126288,9.811126288,0.716151526,0.71362998,34.71015324,35.01534386,12.85472611,24,19,99,102,2.046239046,1
525.0078122,9.890150922,10.01805488,11.24170974,11.64330092,0.226707762,0.230296735,9.809185801,9.809185801,0.714899571,0.71220538,34.71052721,35.0121855,12.87112675,24,19,99,102,2.046239046,1
526.0078122,9.890559388,10.01622076,11.24948504,11.63707269,0.227267483,0.230887803,9.808451797,9.808451797,0.71364109,0.710829199,34.71097435,35.00893022,12.87112675,24,19,99,102,2.046239046,1
527.0078122,9.890878227,10.01187475,11.26532779,11.62097465,0.228463425,0.231238057,9.80946521,9.80946521,0.712392935,0.709487255,34.71135439,35.00565342,12.87112675,24,19,99,102,2.046239046,1
528.0078122,9.891152977,10.00785872,11.26908091,11.61765907,0.230646337,0.231839988,9.809701431,9.809701431,0.711160365,0.708132038,34.71174668,35.00241373,12.88514542,24,19,99,102,2.046239046,1
529.0078122,9.891321198,10.0054176,11.25308176,11.64453911,0.234042677,0.232967912,9.806200279,9.806200279,0.709930805,0.706763577,34.7121548,34.99919573,12.88514542,24,19,99,102,2.046239046,1
530.0078122,9.892002141,10.00347443,11.22744865,11.70118491,0.238494364,0.234484248,9.798549856,9.798549856,0.708703244,0.705335154,34.71249013,34.9958756,12.89694759,24,19,99,103,2.046239046,1
531.0078122,9.893322499,10.00151641,11.20333852,11.78071093,0.243196602,0.235817339,9.787930676,9.787930676,0.707479339,0.703928657,34.7128727,34.99251957,12.89694759,24,19,99,103,2.046239046,1
532.0078122,9.894334306,10.00005557,11.1955986,11.86252308,0.246874062,0.236184509,9.779175472,9.779175472,0.706253866,0.702525478,34.71319471,34.98920639,12.89694759,24,19,99,103,2.046239046,1
533.0078122,9.894130464,9.999607311,11.22267222,11.9079118,0.248761541,0.235126822,9.78129824,9.78129824,0.705049104,0.701157369,34.71351053,34.98578577,12.90656378,24,19,99,103,2.046239046,1
534.0078122,9.893096898,10.00081348,11.28414745,11.89547315,0.249482007,0.232991398,9.798448398,9.798448398,0.703848924,0.699816745,34.71392503,34.98216126,12.90656378,24,19,99,103,2.046239046,1
535.0078122,9.892728501,10.00414594,11.35481314,11.84317509,0.250589635,0.230845435,9.824200508,9.824200508,0.702656233,0.698491862,34.71419116,34.978512,12.91377571,24,19,99,103,2.046239046,1
536.0078122,9.893642634,10.00890469,11.4062774,11.78354816,0.252959405,0.229778551,9.845769075,9.845769075,0.701479069,0.697196129,34.71451675,34.9748617,12.91377571,24,19,99,103,2.046239046,1
537.0078122,9.894681685,10.0126536,11.42749692,11.73989804,0.255787528,0.230181131,9.850959344,9.850959344,0.700312381,0.695924411,34.71486235,34.9712497,12.91377571,24,19,99,103,2.046239046,1
538.0078122,9.89441965,10.01215456,11.41971371,11.71600279,0.257392889,0.231583515,9.837872948,9.837872948,0.699150177,0.694656643,34.71524875,34.96763109,12.91806361,24,19,99,103,2.046239046,1
539.0078122,9.893138192,10.00700017,11.3836142,11.69566351,0.25695982,0.233115828,9.819349812,9.819349812,0.697982622,0.693401666,34.71544573,34.96395577,12.91806361,24,19,99,103,2.046239046,1
540.0078122,9.892455054,10.00124473,11.32975153,11.66896319,0.255356353,0.234171706,9.809857515,9.809857515,0.69683478,0.692154473,34.71552099,34.96026708,12.91863048,24,19,99,103,2.046239046,1
541.0078122,9.892544835,9.998949636,11.28133485,11.64910489,0.254210999,0.234710053,9.810994274,9.810994274,0.695707578,0.690931462,34.71558868,34.95669488,12.91863048,24,19,99,103,2.046239046,1
542.0078122,9.891985762,10.0004555,11.25173722,11.64958181,0.254248326,0.23494586,9.814659728,9.814659728,0.694581291,0.689712011,34.71567371,34.95301032,12.91863048,24,19,99,103,2.046239046,1
543.0078122,9.890178185,10.00410173,11.24200818,11.66366849,0.254566111,0.234836097,9.814353015,9.814353015,0.693447564,0.688476115,34.7156121,34.94927804,12.91450445,24,19,99,103,2.046239046,1
544.0078122,9.888055076,10.00802574,11.25371817,11.67151151,0.253488854,0.234008859,9.81027718,9.81027718,0.692326275,0.687239081,34.71567321,34.94552341,12.91450445,24,19,99,103,2.046239046,1
545.0078122,9.887026523,10.01045778,11.28562069,11.66055481,0.250046658,0.232183345,9.806218946,9.806218946,0.691221553,0.686023566,34.7158537,34.94177227,12.91450445,24,19,99,103,2.046239046,1
546.0078122,9.887492045,10.01167826,11.33042546,11.64107451,0.244685443,0.229506646,9.803507514,9.803507514,0.690129625,0.684819274,34.71593047,34.93804427,12.90470583,23,19,99,103,2.046239046,1
547.0078122,9.888656446,10.01383782,11.37262194,11.63120507,0.238740269,0.226474881,9.800536527,9.800536527,0.689054248,0.683624301,34.71586562,34.93423758,12.90470583,23,19,99,103,2.046239046,1
548.0078122,9.889448746,10.01669031,11.38837433,11.63064079,0.233419842,0.223679804,9.797902186,9.797902186,0.687980091,0.682405856,34.71582439,34.93040237,12.88845367,23,19,99,103,2.046239046,1
549.0078122,9.889284632,10.01735864,11.3727465,11.6290003,0.229288549,0.221640571,9.79937535,9.79937535,0.686922182,0.68122532,34.71563435,34.92652658,12.88845367,23,19,99,103,2.046239046,1
550.0078122,9.888737185,10.01559964,11.35686015,11.62769594,0.226499645,0.220686953,9.806018488,9.806018488,0.685869607,0.680091621,34.71552212,34.92258008,12.86537792,23,19,99,103,2.046239046,1
551.0078122,9.888644049,10.01470399,11.37071145,11.63474151,0.225225838,0.220829259,9.812702165,9.812702165,0.684827177,0.678997977,34.71535099,34.91865568,12.86537792,23,19,99,103,2.046239046,1
552.0078122,9.888832757,10.01637984,11.405102,11.64737574,0.22564812,0.221669198,9.813670946,9.813670946,0.683790326,0.677903474,34.71515118,34.91476593,12.86537792,23,19,99,103,2.046239046,1
553.0078122,9.889041849,10.01873798,11.43409008,11.65177701,0.227503266,0.222457294,9.810095911,9.810095911,0.68276753,0.676851797,34.71481555,34.91082727,12.83570063,23,19,99,103,2.046239046,1
554.0078122,9.88973368,10.01981287,11.45567178,11.6387989,0.229819224,0.222423997,9.807961896,9.807961896,0.681760632,0.675829516,34.71437337,34.90683675,12.83570063,23,19,99,103,2.046239046,1
555.0078122,9.891228489,10.02027845,11.47950048,11.61550358,0.231355047,0.221336054,9.80930828,9.80930828,0.680771587,0.674832478,34.71392301,34.90287492,12.80035177,23,19,99,103,2.046239046,1
556.0078122,9.893030177,10.02157501,11.49994827,11.59905402,0.231479645,0.219833204,9.81114042,9.81114042,0.679794591,0.673839289,34.71346713,34.89892421,12.80035177,23,19,99,103,2.046239046,1
557.0078122,9.894332919,10.02246652,11.50921527,11.60004038,0.230658726,0.219073393,9.810702438,9.810702438,0.678821563,0.672870503,34.71283241,34.89485481,12.80035177,23,19,99,103,2.046239046,1
558.0078122,9.894897045,10.0199213,11.50936006,11.61645854,0.230097382,0.219898824,9.806598575,9.806598575,0.677861824,0.671915848,34.71220916,34.89088541,12.76099322,23,19,99,103,2.046239046,1
559.0078122,9.895083111,10.01418617,11.50586018,11.64136421,0.230917721,0.222217377,9.799196416,9.799196416,0.676910893,0.670975734,34.71161541,34.88692493,12.76099322,23,19,99,103,2.046239046,1
560.0078122,9.894923139,10.00966521,11.5088332,11.66392389,0.233523126,0.225100087,9.792254968,9.792254968,0.67596784,0.670049285,34.71119519,34.88288019,12.71993705,23,19,99,103,2.046239046,1
561.0078122,9.8940672,10.00886552,11.52637765,11.66990829,0.237444824,0.227385362,9.789770631,9.789770631,0.675040269,0.669152771,34.71062283,34.87882897,12.71993705,23,19,99,103,2.046239046,1
562.0078122,9.892988287,10.00955602,11.54489327,11.65671411,0.241653681,0.228278625,9.791834675,9.791834675,0.674108188,0.668255718,34.70999527,34.87473599,12.71993705,23,19,99,103,2.046239046,1
563.0078122,9.892291484,10.00965776,11.53501733,11.63628795,0.245189964,0.227644576,9.795513898,9.795513898,0.673203091,0.667362028,34.70920477,34.87060369,12.67996037,23,19,99,103,2.046239046,1
564.0078122,9.891310071,10.01035696,11.48571416,11.61389879,0.247690438,0.22598476,9.798089047,9.798089047,0.672299768,0.666498805,34.70851091,34.86654907,12.67996037,23,19,99,103,2.046239046,1
565.0078122,9.889501698,10.01281396,11.41343099,11.58249495,0.249300822,0.224156505,9.798532934,9.798532934,0.671400882,0.665629066,34.70775304,34.86252119,12.67996037,23,19,99,103,2.046239046,1
566.0078122,9.887461382,10.01511142,11.33946369,11.54855407,0.250041035,0.22291126,9.795783984,9.795783984,0.670512396,0.664773904,34.70701689,34.85854061,12.64403585,23,19,99,103,2.046239046,1
567.0078122,9.885891672,10.01415014,11.28092529,11.53731889,0.249409589,0.222515118,9.788320514,9.788320514,0.669631777,0.663910168,34.70639668,34.85452802,12.64403585,23,19,99,103,2.046239046,1
568.0078122,9.885150543,10.0096421,11.25612174,11.55555393,0.24683059,0.222761654,9.778707326,9.778707326,0.668776909,0.663078333,34.70567779,34.85061716,12.61501237,23,19,99,104,2.046239046,1
569.0078122,9.885084332,10.00480894,11.27699814,11.57829148,0.242488003,0.223309923,9.772901476,9.772901476,0.667942677,0.662224402,34.70502604,34.84675966,12.61501237,23,19,99,104,2.046239046,1
570.0078122,9.885209731,10.00256037,11.33170068,11.58670262,0.237479969,0.223924228,9.772766803,9.772766803,0.667095069,0.661364363,34.7043608,34.84287683,12.61501237,23,19,99,104,2.046239046,1
571.0078122,9.88549236,10.00300047,11.38535601,11.59244356,0.233161326,0.224392963,9.777118807,9.777118807,0.666260959,0.660525214,34.70359282,34.83903539,12.59529073,23,19,99,104,2.046239046,1
572.0078122,9.886210667,10.00535519,11.41045392,11.61233863,0.230466736,0.224379811,9.788129577,9.788129577,0.66543601,0.6596762,34.70282722,34.83516355,12.59529073,23,19,99,104,2.046239046,1
573.0078122,9.886954074,10.00909981,11.40921848,11.63971554,0.229859274,0.223482635,9.807940851,9.807940851,0.664608168,0.658836078,34.70199618,34.83126382,12.59529073,23,19,99,104,2.046239046,1
574.0078122,9.886433734,10.01236484,11.39482712,11.65804659,0.231383588,0.221499153,9.829872551,9.829872551,0.663798231,0.658035259,34.70128919,34.82740034,12.58654188,23,18,99,104,2.046239046,1
575.0078122,9.884380394,10.01276268,11.37391296,11.66965279,0.234348533,0.218690417,9.84107975,9.84107975,0.663008439,0.657244375,34.7006296,34.823644,12.58654188,23,18,99,104,2.046239046,1
576.0078122,9.882752196,10.01042142,11.36128225,11.68777648,0.237172279,0.215788676,9.837677962,9.837677962,0.662212969,0.656417049,34.69993378,34.81987206,12.58950975,23,18,99,104,2.046239046,1
577.0078122,9.883475031,10.00759142,11.37531766,11.70621045,0.238098049,0.213655064,9.830340742,9.830340742,0.661413161,0.655547771,34.69921347,34.81617413,12.58950975,23,18,99,104,2.046239046,1
578.0078122,9.886346483,10.00634492,11.40727703,11.70068728,0.236363759,0.212866203,9.831049459,9.831049459,0.66064587,0.654714744,34.69850472,34.81244839,12.58950975,23,18,99,104,2.046239046,1
579.0078122,9.88970422,10.00772882,11.42664419,11.65951068,0.232672372,0.213625257,9.84055538,9.84055538,0.659880575,0.653896896,34.69791821,34.80879046,12.60392705,23,18,99,104,2.046239046,1
580.0078122,9.891888273,10.01085841,11.42080508,11.59441579,0.228604247,0.215914445,9.849472934,9.849472934,0.659122464,0.653112989,34.69729165,34.80519608,12.60392705,23,18,99,104,2.046239046,1
581.0078122,9.892653606,10.01345656,11.41010701,11.52221268,0.225704507,0.219395583,9.847107862,9.847107862,0.65838494,0.652318368,34.69661863,34.80159205,12.60392705,23,18,99,104,2.046239046,1
582.0078122,9.893235529,10.01482914,11.42166228,11.45712506,0.224885839,0.223025366,9.832395238,9.832395238,0.657647328,0.651501925,34.69596343,34.79804707,12.62855361,23,18,99,104,2.046239046,1
583.0078122,9.894565468,10.01646818,11.45713164,11.41808111,0.226142036,0.225133984,9.818725152,9.818725152,0.656924871,0.6506847,34.69532565,34.79460213,12.62855361,23,18,99,104,2.046239046,1
584.0078122,9.896104425,10.01908341,11.49119235,11.41831782,0.22858232,0.224451038,9.823429216,9.823429216,0.656221258,0.649832599,34.69468095,34.79112334,12.66132692,23,18,99,104,2.046239046,1
585.0078122,9.896253867,10.02145371,11.4994627,11.45147224,0.230948954,0.221213949,9.849907768,9.849907768,0.655507098,0.648974906,34.69412839,34.787649,12.66132692,23,18,99,104,2.046239046,1
586.0078122,9.893822101,10.0224876,11.47751517,11.50077563,0.232402175,0.217092995,9.88238655,9.88238655,0.654811653,0.648073595,34.69354022,34.78419661,12.66132692,23,18,99,104,2.046239046,1
587.0078122,9.889141677,10.02198239,11.43379746,11.55378748,0.232901447,0.213871579,9.901794298,9.901794298,0.654124069,0.647125042,34.69299452,34.78088301,12.69959766,23,18,99,104,2.046239046,1
588.0078122,9.884094326,10.01983424,11.38144534,11.59958982,0.232962866,0.212238228,9.903879475,9.903879475,0.65342872,0.646175069,34.69250123,34.77752142,12.69959766,23,18,99,104,2.046239046,1
589.0078122,9.881381732,10.01692985,11.34072958,11.62025482,0.233179056,0.211708572,9.896496574,9.896496574,0.652744518,0.645211552,34.69192975,34.77411399,12.74041238,24,18,99,104,2.046239046,1
590.0078122,9.882167908,10.01559737,11.33235449,11.60162376,0.233848515,0.211438683,9.88654144,9.88654144,0.652066502,0.64423413,34.69145662,34.77087079,12.74041238,24,18,99,104,2.046239046,1
591.0078122,9.884680085,10.01694623,11.35715779,11.5552271,0.234806793,0.211024253,9.876796922,9.876796922,0.651401934,0.643235777,34.69108635,34.76767707,12.74041238,24,18,99,104,2.046239046,1
592.0078122,9.886525354,10.01910332,11.39133107,11.51331119,0.235585197,0.210645396,9.868068536,9.868068536,0.650750278,0.642205363,34.69057119,34.76455083,12.78080287,24,18,99,104,2.046239046,1
593.0078122,9.887090766,10.0195943,11.40743439,11.49743404,0.235877079,0.210640166,9.859815038,9.859815038,0.650100695,0.641146333,34.6900531,34.76144287,12.78080287,24,18,99,104,2.046239046,1
594.0078122,9.887126476,10.01828666,11.39630321,11.50534711,0.235830702,0.21110297,9.852913813,9.852913813,0.649444974,0.640059682,34.68953714,34.75847271,12.81804652,24,19,99,104,2.046239046,1
595.0078122,9.887337417,10.01729504,11.37102916,11.52233561,0.235757568,0.211893712,9.851031913,9.851031913,0.648782773,0.6389581,34.68901778,34.75543923,12.81804652,24,19,99,104,2.046239046,1
596.0078122,9.887825828,10.0184556,11.35116015,11.53524202,0.235602711,0.212841021,9.855955924,9.855955924,0.648127545,0.637845041,34.68847722,34.75240724,12.81804652,24,19,99,104,2.046239046,1
597.0078122,9.88815624,10.02102404,11.34481559,11.54297868,0.234852674,0.213785945,9.864138348,9.864138348,0.647482693,0.636704154,34.68792866,34.74938196,12.84987164,24,19,99,104,2.046239046,1
598.0078122,9.887922912,10.02252275,11.34952871,11.55202171,0.232984011,0.214494589,9.870275236,9.870275236,0.646840618,0.635547106,34.6874025,34.74634026,12.84987164,24,19,99,104,2.046239046,1
599.0078122,9.887488719,10.02127126,11.35976293,11.56313724,0.229973685,0.214722333,9.872922413,9.872922413,0.64620895,0.634376632,34.68690461,34.74333849,12.87459361,24,18,99,103,2.046239046,1
600.0078122,9.887827676,10.01757508,11.36845845,11.57425522,0.226454962,0.214401685,9.875317423,9.875317423,0.64557198,0.633184614,34.68654206,34.74032331,12.87459361,24,18,99,103,2.046239046,1
601.0078122,9.889436706,10.0135684,11.37260302,11.58996178,0.223447872,0.213703951,9.88114917,9.88114917,0.644934975,0.631970681,34.68613634,34.73710555,12.89117855,24,18,99,103,2.046239046,1
602.0078122,9.891696063,10.01121741,11.37998429,11.61621642,0.221846098,0.212922365,9.889945556,9.889945556,0.644308604,0.630746793,34.68562026,34.73404928,12.89117855,24,18,99,103,2.046239046,1
603.0078122,9.893580935,10.01006068,11.39837127,11.64657204,0.22198471,0.212396338,9.895067717,9.895067717,0.643682764,0.629503847,34.6851465,34.73103215,12.89117855,24,18,99,103,2.046239046,1
604.0078122,9.894422546,10.00853436,11.42140906,11.65990011,0.223552075,0.212545454,9.887273389,9.887273389,0.643055837,0.628258168,34.68462194,34.72796997,12.89924011,24,18,99,103,2.046239046,1
605.0078122,9.894262123,10.00733663,11.4433181,11.64247051,0.225818955,0.213760344,9.865312371,9.865312371,0.642429678,0.62702434,34.68403718,34.72490702,12.89924011,24,18,99,103,2.046239046,1
606.0078122,9.893939355,10.0086609,11.47528966,11.61052078,0.227949196,0.216020115,9.841460123,9.841460123,0.641801626,0.625785343,34.68357329,34.72184458,12.89898033,23,18,99,103,2.046239046,1
607.0078122,9.8940422,10.01207122,11.51812938,11.59209712,0.229258121,0.218608245,9.831213333,9.831213333,0.641167474,0.624562405,34.68313183,34.7187383,12.89898033,23,18,99,103,2.046239046,1
608.0078122,9.894296657,10.01482956,11.53404593,11.58966381,0.229443881,0.220413389,9.838137189,9.838137189,0.640525527,0.623345785,34.68267053,34.71555747,12.89898033,23,18,99,103,2.046239046,1
609.0078122,9.894351749,10.01619915,11.49118191,11.58450769,0.228705058,0.220721013,9.851821449,9.851821449,0.639889324,0.622104631,34.68227817,34.71244258,12.8910889,23,18,99,102,2.046239046,1
610.0078122,9.894596923,10.01807395,11.42506575,11.57019348,0.22751985,0.219817022,9.861318168,9.861318168,0.639247884,0.620848963,34.68177456,34.70936808,12.8910889,23,18,99,102,2.046239046,1
611.0078122,9.895958537,10.02176821,11.40536737,11.55897912,0.226192039,0.21886123,9.865339992,9.865339992,0.638599782,0.619569946,34.68128225,34.70619398,12.87661696,23,18,99,102,2.046239046,1
612.0078122,9.898136883,10.02649784,11.45378031,11.56590539,0.224644487,0.21912336,9.867702791,9.867702791,0.637947889,0.618320074,34.6809316,34.70292814,12.87661696,23,18,99,102,2.046239046,1
613.0078122,9.899348488,10.03048507,11.52834548,11.59469429,0.222750329,0.221112145,9.8727173,9.8727173,0.637287538,0.617045928,34.68048181,34.69961781,12.87661696,23,18,99,102,2.046239046,1
614.0078122,9.898522208,10.03162795,11.56981564,11.62869127,0.220813817,0.224179965,9.886179318,9.886179318,0.636631903,0.615803882,34.68013166,34.69633952,12.85684187,23,18,99,102,2.046239046,1
615.0078122,9.895964951,10.02815522,11.55068221,11.64219895,0.219583497,0.226921617,9.909220913,9.909220913,0.635955854,0.61455825,34.67978377,34.69303136,12.85684187,23,18,99,102,2.046239046,1
616.0078122,9.892695349,10.02070925,11.49559614,11.62896571,0.219729821,0.228160268,9.930638165,9.930638165,0.63528795,0.613340154,34.67938879,34.68966692,12.83313943,23,18,99,102,2.046239046,1
617.0078122,9.890323418,10.01292699,11.45699826,11.60676023,0.221402011,0.227755766,9.934834019,9.934834019,0.63462514,0.612146906,34.67903663,34.68628348,12.83313943,23,18,99,102,2.046239046,1
618.0078122,9.89007525,10.00915646,11.46592918,11.5905157,0.224324692,0.226528528,9.919682605,9.919682605,0.633953234,0.610972977,34.67869091,34.68280673,12.83313943,23,18,99,102,2.046239046,1
619.0078122,9.891375065,10.01171916,11.50970166,11.57684618,0.228063779,0.225416867,9.897870103,9.897870103,0.633279339,0.609831112,34.67826911,34.67928276,12.8068777,23,18,99,101,2.046239046,1
620.0078122,9.892890219,10.01897359,11.55546716,11.5569894,0.2319464,0.224695796,9.880019842,9.880019842,0.63261585,0.608766379,34.67773605,34.67569095,12.8068777,23,18,99,101,2.046239046,1
621.0078122,9.894337412,10.02535087,11.58036049,11.53449254,0.234948428,0.223910056,9.86804525,9.86804525,0.631941306,0.607712704,34.67724682,34.67204197,12.77934287,23,18,99,101,2.046239046,1
622.0078122,9.895788244,10.02592048,11.5761017,11.52407434,0.236147241,0.222446132,9.860957608,9.860957608,0.631273688,0.606664279,34.67685904,34.66825076,12.77934287,23,18,99,101,2.046239046,1
623.0078122,9.896829789,10.02137088,11.54551555,11.53158483,0.235447644,0.220149075,9.856601234,9.856601234,0.630597701,0.605639902,34.67646574,34.66443038,12.77934287,23,18,99,101,2.046239046,1
624.0078122,9.897093517,10.01555309,11.50701503,11.54395068,0.233676602,0.21749946,9.852005424,9.852005424,0.629921395,0.604619104,34.67603675,34.66054113,12.75170131,23,18,99,101,2.046239046,1
625.0078122,9.896443312,10.01021498,11.4877397,11.54471483,0.231871142,0.215293029,9.846215054,9.846215054,0.629246813,0.603616423,34.67554593,34.65659964,12.75170131,23,18,99,101,2.046239046,1
626.0078122,9.895251089,10.00548592,11.50001131,11.53090275,0.230490467,0.214184419,9.841746066,9.841746066,0.628568657,0.60262163,34.67512207,34.65253338,12.75170131,23,18,99,101,2.046239046,1
627.0078122,9.894505813,10.00265616,11.53434737,11.51292107,0.229315921,0.214371896,9.842775649,9.842775649,0.62787541,0.601635399,34.67460167,34.64838771,12.72499453,23,18,99,101,2.046239046,1
628.0078122,9.894763852,10.0031934,11.57610333,11.50127479,0.22798602,0.215498815,9.848371262,9.848371262,0.627194014,0.600663607,34.67412288,34.64416229,12.72499453,23,18,99,101,2.046239046,1
629.0078122,9.89553154,10.00610599,11.60951227,11.49395432,0.22649687,0.216826602,9.850315626,9.850315626,0.626498109,0.599692302,34.67370468,34.63990524,12.72499453,23,18,99,101,2.046239046,1
630.0078122,9.895922311,10.00899367,11.60877475,11.4829404,0.225202556,0.217702007,9.843825376,9.843825376,0.625803878,0.598746671,34.67322162,34.63555618,12.70015633,23,18,99,101,2.046239046,1
631.0078122,9.895988596,10.01192087,11.5583371,11.47136068,0.224513694,0.218037702,9.836325564,9.836325564,0.625112235,0.597792909,34.67282993,34.63115344,12.70015633,23,18,99,101,2.046239046,1
632.0078122,9.89686693,10.01743892,11.48685202,11.47092434,0.224684759,0.218304626,9.84031392,9.84031392,0.624412032,0.596840104,34.67247232,34.6267655,12.6780361,22,18,99,101,2.046239046,1
633.0078122,9.898777527,10.02602238,11.45030458,11.48500851,0.225696887,0.218942163,9.858301228,9.858301228,0.623717888,0.595906088,34.67211996,34.62229912,12.6780361,22,18,99,101,2.046239046,1
634.0078122,9.90005791,10.03402207,11.47134385,11.50644658,0.227144215,0.219823933,9.879200005,9.879200005,0.623023855,0.594982595,34.67158415,34.61777263,12.6780361,22,18,99,101,2.046239046,1
635.0078122,9.898909983,10.03708387,11.51950692,11.52728486,0.228369909,0.220437649,9.892222034,9.892222034,0.622316901,0.594037365,34.67096979,34.61307726,12.65941004,22,18,99,101,2.046239046,1
636.0078122,9.895922513,10.03502875,11.5603818,11.54479495,0.228975638,0.220547393,9.89716702,9.89716702,0.621623033,0.593105534,34.67053119,34.60837654,12.65941004,22,18,99,101,2.046239046,1
637.0078122,9.893758042,10.03198014,11.59285922,11.56308237,0.229160511,0.220485132,9.898182084,9.898182084,0.620942038,0.592108292,34.67011773,34.60363862,12.65941004,22,18,99,101,2.046239046,1
638.0078122,9.893284027,10.03017852,11.61957132,11.58735107,0.229422596,0.220775682,9.898548257,9.898548257,0.620256902,0.591153041,34.66955243,34.59881876,12.64496473,22,18,99,101,2.046239046,1
639.0078122,9.892577821,10.02723585,11.61906259,11.61319639,0.229974913,0.221643323,9.90014717,9.90014717,0.619565999,0.590217526,34.6689313,34.5939662,12.64496473,22,18,99,101,2.046239046,1
640.0078122,9.890595279,10.02200255,11.57993382,11.62985959,0.230579971,0.222959089,9.900603252,9.900603252,0.618882283,0.589268138,34.66828202,34.58910932,12.64496473,22,18,99,101,2.046239046,1
641.0078122,9.888544032,10.01747905,11.52784739,11.63470362,0.230822418,0.224464469,9.895943789,9.895943789,0.618210593,0.588340664,34.66772135,34.58429233,12.63524342,22,18,99,101,2.046239046,1
642.0078122,9.887637396,10.01560649,11.49398618,11.63489829,0.230382571,0.225807636,9.885858162,9.885858162,0.617538558,0.587397486,34.66714573,34.57940793,12.63524342,22,18,99,101,2.046239046,1
643.0078122,9.88773699,10.01466217,11.48013412,11.63421312,0.229184557,0.2264308,9.873746259,9.873746259,0.616857614,0.586433874,34.66655624,34.57441028,12.63055488,22,18,99,101,2.046239046,1
644.0078122,9.887942555,10.01337156,11.46761059,11.62824543,0.227507049,0.225773944,9.863135359,9.863135359,0.616178728,0.585452654,34.665976,34.56942018,12.63055488,22,18,99,101,2.046239046,1
645.0078122,9.887493592,10.0129661,11.44983684,11.61792827,0.225931269,0.223812579,9.853527374,9.853527374,0.615505719,0.584458334,34.66538918,34.56447353,12.63055488,22,18,99,101,2.046239046,1
646.0078122,9.886148705,10.01399538,11.43797531,11.61279705,0.225040508,0.221277025,9.843111057,9.843111057,0.614832684,0.583450755,34.66466795,34.55940035,12.63085446,22,18,99,101,2.046239046,1
647.0078122,9.884750906,10.01492341,11.4360933,11.61696879,0.225135745,0.219177427,9.834369873,9.834369873,0.614169998,0.582422957,34.6640657,34.55437851,12.63085446,22,18,99,101,2.046239046,1
648.0078122,9.885184256,10.01498949,11.43425095,11.62821378,0.22622769,0.218134514,9.830310084,9.830310084,0.613495416,0.581388395,34.66346125,34.54924301,12.63085446,22,18,99,101,2.046239046,1
649.0078122,9.888152431,10.01619399,11.43198521,11.6462361,0.228173969,0.218143062,9.830784196,9.830784196,0.612826219,0.580371609,34.66287605,34.54419885,12.63561601,22,18,99,101,2.046239046,1
650.0078122,9.891987887,10.02124423,11.44570953,11.67691982,0.230664701,0.218756744,9.835708248,9.835708248,0.612172071,0.579329288,34.66228492,34.53920063,12.63561601,22,18,99,101,2.046239046,1
651.0078122,9.89462369,10.02925638,11.47471863,11.73278528,0.233023132,0.219388526,9.844936782,9.844936782,0.611503176,0.578268866,34.66159596,34.53416797,12.64371922,22,18,99,101,2.046239046,1
652.0078122,9.895466536,10.03532656,11.49061177,11.81121392,0.23429152,0.219625848,9.855564826,9.855564826,0.610837213,0.57721783,34.66097489,34.52905509,12.64371922,22,18,99,101,2.046239046,1
653.0078122,9.895221788,10.03651938,11.48805356,11.87781725,0.23383991,0.219438153,9.862553317,9.862553317,0.610173768,0.576154104,34.66039631,34.52394973,12.64371922,22,18,99,101,2.046239046,1
654.0078122,9.894300886,10.03490935,11.4973886,11.89785559,0.231987587,0.219052542,9.862295698,9.862295698,0.609530513,0.57504786,34.65977808,34.51893145,12.65337929,22,19,99,101,2.046239046,1
655.0078122,9.89236874,10.03305125,11.52925042,11.8746649,0.229857708,0.218628762,9.856037109,9.856037109,0.608898173,0.574025161,34.65920738,34.51396675,12.65337929,22,19,99,101,2.046239046,1
656.0078122,9.889958945,10.03142762,11.56036431,11.84003106,0.228536101,0.218185762,9.849228194,9.849228194,0.608272061,0.57303522,34.65856711,34.50899312,12.6621435,22,19,99,101,2.046239046,1
657.0078122,9.888664966,10.03045228,11.57422666,11.81631717,0.228364064,0.21784786,9.849159364,9.849159364,0.607646016,0.572048645,34.65794364,34.50394947,12.6621435,22,19,99,101,2.046239046,1
658.0078122,9.889493015,10.02997729,11.5725596,11.8034062,0.22888602,0.217942427,9.860036036,9.860036036,0.607024417,0.571055515,34.65719776,34.49888304,12.6621435,22,19,99,101,2.046239046,1
659.0078122,9.891920473,10.02796518,11.55104138,11.78750332,0.229315023,0.218703478,9.875676744,9.875676744,0.606392714,0.57005216,34.65648734,34.49389735,12.66697324,22,19,99,101,2.046239046,1
660.0078122,9.89412292,10.0235863,11.50754839,11.75031319,0.229149828,0.219995626,9.883441354,9.883441354,0.605763022,0.569045955,34.65575717,34.48896307,12.66697324,22,19,99,101,2.046239046,1
661.0078122,9.894793098,10.0191425,11.47374378,11.68634868,0.228563446,0.221490523,9.877005967,9.877005967,0.605146731,0.568048858,34.65503399,34.48404639,12.66697324,22,19,99,101,2.046239046,1
662.0078122,9.89504984,10.01676546,11.49636641,11.61560161,0.228252514,0.223028205,9.859964411,9.859964411,0.604524822,0.567062913,34.65438541,34.47910285,12.66442022,22,19,99,101,2.046239046,1
663.0078122,9.896943958,10.01657437,11.58235042,11.57126703,0.228823503,0.224610489,9.840600683,9.840600683,0.603906282,0.566085899,34.65381141,34.47411769,12.66442022,22,19,99,101,2.046239046,1
664.0078122,9.900207252,10.0185956,11.68085286,11.57245209,0.230268876,0.226049228,9.825861741,9.825861741,0.60329588,0.565261995,34.65314679,34.46924578,12.66442022,22,19,99,101,2.046239046,1
665.0078122,9.902554194,10.0232451,11.73288494,11.60667361,0.232009358,0.22688745,9.816535467,9.816535467,0.602690399,0.564535254,34.65240494,34.46442581,12.65089394,22,19,98,101,2.046239046,1
666.0078122,9.902913355,10.02899996,11.73187543,11.64689621,0.233385779,0.226778783,9.808353881,9.808353881,0.602089054,0.563856572,34.65167252,34.45964067,12.65089394,22,19,98,101,2.046239046,1
667.0078122,9.901952875,10.03245211,11.71205039,11.68447345,0.234079266,0.225845117,9.799353855,9.799353855,0.601499056,0.563150476,34.65099238,34.45498511,12.62300372,22,19,98,102,2.046239046,1
668.0078122,9.900357492,10.03230312,11.69705525,11.72561349,0.234180168,0.224533069,9.793019426,9.793019426,0.600906539,0.56252808,34.65032111,34.45046659,12.62300372,22,19,98,102,2.046239046,1
669.0078122,9.89872774,10.03052562,11.68742626,11.76395627,0.23399501,0.223160921,9.79417266,9.79417266,0.600312272,0.561979844,34.64965084,34.44596028,12.62300372,22,19,98,102,2.046239046,1
670.0078122,9.897649126,10.02890057,11.67621298,11.78324198,0.233761473,0.221750447,9.805405703,9.805405703,0.599713754,0.56146843,34.64903726,34.4414515,12.57794553,22,19,98,102,2.046239046,1
671.0078122,9.896941212,10.02743332,11.65835501,11.78210917,0.233426395,0.220337889,9.826357198,9.826357198,0.599125795,0.561004873,34.64834045,34.43705213,12.57794553,22,19,98,102,2.046239046,1
672.0078122,9.895668829,10.02620879,11.63572354,11.77369894,0.232664567,0.219298527,9.853935637,9.853935637,0.59853718,0.560574576,34.64759462,34.43269826,12.51389154,22,19,98,102,2.046239046,1
673.0078122,9.893251772,10.02626454,11.61911498,11.7640309,0.231187272,0.219202582,9.88714108,9.88714108,0.597947184,0.560188966,34.64686334,34.42841736,12.51389154,22,19,98,102,2.046239046,1
674.0078122,9.890807742,10.02830649,11.61780077,11.75229904,0.229094321,0.220337199,9.934930365,9.934930365,0.597356337,0.559841184,34.6462066,34.4242305,12.51389154,22,19,98,102,2.046239046,1
675.0078122,9.890180038,10.03134405,11.63186819,11.74839584,0.226903092,0.22241156,10.00731799,10.00731799,0.596776323,0.559534972,34.64550158,34.42003598,12.43033191,22,19,98,102,2.046239046,1
676.0078122,9.891516414,10.03259771,11.65841908,11.75985055,0.225159619,0.224716932,10.08543242,10.08543242,0.596188514,0.559281986,34.64484941,34.41596481,12.43033191,22,19,98,102,2.046239046,1
677.0078122,9.893899732,10.03057209,11.69605408,11.77505253,0.224000178,0.226548071,10.11569428,10.11569428,0.595584387,0.559063419,34.64416427,34.41197773,12.43033191,22,19,98,102,2.046239046,1
678.0078122,9.896606938,10.02765261,11.73231061,11.7878183,0.223052717,0.227666847,10.06368905,10.06368905,0.594976762,0.55888314,34.64338016,34.40809236,12.32831474,22,19,98,102,2.046239046,1
679.0078122,9.898647302,10.02709998,11.74675145,11.80524005,0.221877966,0.228553502,9.964008296,9.964008296,0.594374907,0.558733722,34.64264648,34.40428967,12.32831474,22,19,98,102,2.046239046,1
680.0078122,9.899356653,10.02871937,11.73846238,11.81613274,0.220643199,0.230198413,9.88154671,9.88154671,0.593781446,0.558622901,34.64190492,34.40060162,12.32831474,22,19,98,102,2.046239046,1
681.0078122,9.899241863,10.0293727,11.7326885,11.79080852,0.220367829,0.233303053,9.842599441,9.842599441,0.593199986,0.558584849,34.64116375,34.39702738,12.21053474,22,19,98,102,2.046239046,1
682.0078122,9.89934978,10.02674352,11.7518975,11.71978458,0.222273535,0.237324354,9.83239549,9.83239549,0.592602649,0.558722504,34.64038148,34.39362409,12.21053474,22,19,98,102,2.046239046,1
683.0078122,9.900153522,10.02145998,11.78348063,11.63697847,0.226635616,0.240340875,9.831170667,9.831170667,0.592008628,0.558959631,34.63960145,34.39040063,12.08123419,22,19,98,102,2.046239046,1
684.0078122,9.900972537,10.01606953,11.78291686,11.5939038,0.23222628,0.240257343,9.831631533,9.831631533,0.591416586,0.559246008,34.63873671,34.38721698,12.08123419,22,19,98,102,2.046239046,1
685.0078122,9.901143621,10.01352098,11.72503421,11.60937604,0.237023935,0.236422125,9.833863145,9.833863145,0.590836862,0.559563063,34.63782251,34.38409055,12.08123419,22,19,98,102,2.046239046,1
686.0078122,9.900812802,10.01579229,11.64597594,11.65945376,0.239588262,0.230067213,9.836565379,9.836565379,0.590279757,0.559854562,34.63690574,34.38106661,11.94590209,22,19,98,102,2.046239046,1
687.0078122,9.899790204,10.02187995,11.60473027,11.70785533,0.239804159,0.223246171,9.838729312,9.838729312,0.58976167,0.560276501,34.63594627,34.37814077,11.94590209,22,19,98,102,2.046239046,1
688.0078122,9.897612608,10.02823584,11.60856795,11.72873733,0.238478416,0.217550135,9.842332202,9.842332202,0.589239412,0.560858946,34.6348435,34.3753622,11.81078692,22,18,98,102,2.046239046,1
689.0078122,9.894452547,10.03133492,11.60172026,11.71621886,0.236494433,0.213694706,9.848044107,9.848044107,0.588720059,0.561454026,34.63377154,34.37273719,11.81078692,22,18,98,102,2.046239046,1
690.0078122,9.891117767,10.02922987,11.53125336,11.68519306,0.234407985,0.211861283,9.854733666,9.854733666,0.5882263,0.562194284,34.63269639,34.37022812,11.81078692,22,18,98,102,2.046239046,1
691.0078122,9.889019749,10.0228172,11.41777943,11.65886987,0.232510483,0.211952228,9.864228793,9.864228793,0.58773573,0.563031671,34.63161832,34.36790004,11.68227051,22,18,98,102,2.046239046,1
692.0078122,9.88979103,10.01614585,11.34325945,11.65181095,0.230963223,0.213686038,9.878314148,9.878314148,0.58725948,0.563908822,34.63043943,34.36564544,11.68227051,22,18,98,102,2.046239046,1
693.0078122,9.893749455,10.01321649,11.36311502,11.66380315,0.229785754,0.216733545,9.891455293,9.891455293,0.586782436,0.564807381,34.62919813,34.36349776,11.56617997,22,18,98,103,2.046239046,1
694.0078122,9.898953189,10.01428125,11.45515146,11.69249647,0.228780254,0.220863472,9.898729862,9.898729862,0.586330831,0.565810889,34.62797831,34.36147627,11.56617997,22,18,98,103,2.046239046,1
695.0078122,9.90265458,10.01748671,11.560741,11.73663716,0.227576535,0.225808403,9.907505385,9.907505385,0.585923454,0.567066115,34.62676155,34.35955147,11.56617997,22,18,98,103,2.046239046,1
696.0078122,9.902848201,10.02215234,11.64198334,11.77375969,0.225928359,0.230899373,9.925236892,9.925236892,0.585564467,0.568563772,34.62538603,34.35768968,11.56617997,22,18,98,103,2.046239046,1
697.0078122,9.898701803,10.0275004,11.6821824,11.77020888,0.224094385,0.234982045,9.938462495,9.938462495,0.585212066,0.570395071,34.62395199,34.35592934,11.46713394,22,18,98,103,2.046239046,1
698.0078122,9.891711914,10.03091207,11.67129659,11.73080504,0.222911093,0.236976565,9.92252064,9.92252064,0.584869415,0.572229285,34.62258614,34.35430803,11.46713394,22,18,98,103,2.046239046,1
699.0078122,9.885987019,10.02991314,11.62480108,11.70063322,0.223443339,0.236696661,9.875317588,9.875317588,0.584571825,0.574130471,34.6212275,34.35273115,11.46713394,22,18,98,103,2.046239046,1
700.0078122,9.88511475,10.02536771,11.58980637,11.71475121,0.226478564,0.235044364,9.823340799,9.823340799,0.584288384,0.576209401,34.61977154,34.35123452,11.46713394,22,18,98,103,2.046239046,1
701.0078122,9.889097415,10.02157997,11.5972715,11.77761571,0.232082797,0.233212612,9.792610999,9.792610999,0.58404559,0.578367346,34.61824386,34.3498666,11.38802422,22,18,98,103,2.046239046,1
702.0078122,9.895462823,10.02273221,11.62955411,11.87531778,0.239298839,0.231639613,9.788857023,9.788857023,0.583841374,0.580672935,34.61668374,34.3486035,11.38802422,22,18,98,103,2.046239046,1
703.0078122,9.901957087,10.02920755,11.65885019,11.9699843,0.246252694,0.229771306,9.804123246,9.804123246,0.583715419,0.583129492,34.61509815,34.34745565,11.32971978,22,18,98,103,2.046239046,1
704.0078122,9.906691048,10.0368758,11.68076894,12.01333181,0.250752723,0.226787518,9.829266996,9.829266996,0.583647549,0.585610211,34.61339222,34.34640368,11.32971978,22,18,98,103,2.046239046,1
705.0078122,9.907827218,10.04084732,11.69443286,11.99634326,0.251318022,0.222427665,9.858846218,9.858846218,0.583623126,0.588187853,34.61164803,34.34543369,11.32971978,22,18,98,103,2.046239046,1
706.0078122,9.905362838,10.03979433,11.68545631,11.94282148,0.247936694,0.217208149,9.89095039,9.89095039,0.583700892,0.591034017,34.60996368,34.34458756,11.29104995,22,17,98,103,2.046239046,1
707.0078122,9.901128881,10.03576911,11.64635833,11.86833914,0.242073391,0.212052924,9.923831836,9.923831836,0.583883791,0.594075397,34.60829557,34.34379056,11.29104995,22,17,98,103,2.046239046,1
708.0078122,9.896604736,10.03133929,11.59497082,11.78986826,0.235837702,0.207790426,9.952731638,9.952731638,0.58415766,0.597267758,34.60655031,34.34306448,11.29104995,22,17,98,103,2.046239046,1
709.0078122,9.892288858,10.02720288,11.55459456,11.73327598,0.230801546,0.204846839,9.9725263,9.9725263,0.584486109,0.600501222,34.6047651,34.34239656,11.26907989,23,17,98,103,2.046239046,1
710.0078122,9.888307866,10.0222618,11.52767641,11.70898793,0.227277563,0.203201085,9.982634475,9.982634475,0.584868809,0.603811559,34.60296506,34.34165334,11.26907989,23,17,98,103,2.046239046,1
711.0078122,9.885259425,10.01634324,11.49887411,11.70547726,0.22457852,0.202513607,9.986411824,9.986411824,0.585320124,0.607210251,34.60122174,34.34091474,11.26907989,23,17,98,103,2.046239046,1
712.0078122,9.883909151,10.01132395,11.45815419,11.70411508,0.221989755,0.202338367,9.987861835,9.987861835,0.585829779,0.610729157,34.59939734,34.34032474,11.25964383,23,17,98,104,2.046239046,1
713.0078122,9.884178369,10.00903199,11.42115751,11.69598438,0.21960211,0.202402098,9.989535177,9.989535177,0.586431003,0.61439358,34.59751904,34.3397888,11.25964383,23,17,98,104,2.046239046,1
714.0078122,9.885588217,10.00942916,11.41856371,11.68585463,0.218341519,0.202900175,9.990046625,9.990046625,0.587136595,0.618335422,34.59562761,34.33919292,11.25805811,23,17,98,104,2.046239046,1
715.0078122,9.887386582,10.01089305,11.45890349,11.67476095,0.219254405,0.204562484,9.987584378,9.987584378,0.587886819,0.622263526,34.5936628,34.33867711,11.25805811,23,17,98,104,2.046239046,1
716.0078122,9.888628294,10.01188992,11.5256002,11.65116473,0.222694247,0.208233629,9.985315093,9.985315093,0.588678339,0.626161011,34.59170041,34.33823385,11.25805811,23,17,98,104,2.046239046,1
717.0078122,9.889741758,10.01248094,11.60965899,11.61298305,0.228080121,0.214154255,9.981364035,9.981364035,0.589504924,0.630191146,34.58990788,34.33784845,11.25990417,23,17,98,104,2.046239046,1
718.0078122,9.892831394,10.0140166,11.70476833,11.58105235,0.234482326,0.221751868,9.961747675,9.961747675,0.590408674,0.634428995,34.58813439,34.3375121,11.25990417,23,17,98,104,2.046239046,1
719.0078122,9.899072494,10.01806122,11.79162665,11.58401331,0.241546119,0.230387699,9.92554093,9.92554093,0.59139156,0.638804516,34.58635439,34.33710068,11.2617593,23,17,98,104,2.046239046,1
720.0078122,9.907321975,10.02718672,11.88787393,11.6633488,0.249888293,0.240364849,9.905314617,9.905314617,0.592454217,0.643302527,34.58450372,34.33666413,11.2617593,23,17,98,104,3.559496032,3
721.0078122,9.916643018,10.04642401,12.09005709,11.89199733,0.260544985,0.252921292,9.942504817,9.942504817,0.593564724,0.647837894,34.58270706,34.33634277,15.08051807,26,20,97,103,3.559496032,3
722.0078122,9.927448449,10.08137931,12.5030473,12.32619163,0.273918409,0.268884802,10.05020997,10.05020997,0.594707266,0.652387739,34.58085819,34.33602597,15.08051807,26,20,97,103,3.559496032,3
723.0078122,9.939267275,10.13165434,13.11696022,12.91431789,0.289128037,0.287199715,10.20011294,10.20011294,0.595884524,0.656940671,34.57893756,34.33573173,15.08051807,26,20,97,103,3.559496032,3
724.0078122,9.949627562,10.1846222,13.77393324,13.49914165,0.30435611,0.304957636,10.3376028,10.3376028,0.597076461,0.661427252,34.57711955,34.33537373,15.10163148,26,20,97,103,3.559496032,3
725.0078122,9.955908016,10.22094888,14.27682331,13.94280779,0.317920463,0.319280185,10.41924457,10.41924457,0.598291186,0.665829771,34.57537515,34.33490197,15.10163148,26,20,97,103,3.559496032,3
726.0078122,9.95799542,10.23151087,14.53542333,14.23168281,0.329083927,0.329479545,10.44366654,10.44366654,0.599544173,0.670291199,34.57358397,34.33441692,15.14161125,26,20,97,103,3.559496032,3
727.0078122,9.957828555,10.22475371,14.60815772,14.43954484,0.337851786,0.337332887,10.44371797,10.44371797,0.600854951,0.674982973,34.57166712,34.33395547,15.14161125,26,20,97,103,3.559496032,3
728.0078122,9.956819652,10.21583871,14.62950461,14.60247152,0.344163409,0.345043352,10.45398416,10.45398416,0.602194005,0.679682944,34.56979373,34.33343936,15.19623915,26,20,97,103,3.559496032,3
729.0078122,9.956019266,10.21377064,14.69892593,14.68117489,0.347627349,0.352931283,10.48954261,10.48954261,0.603529713,0.684300869,34.56794907,34.33299881,15.19623915,26,20,97,103,3.559496032,3
730.0078122,9.956836265,10.2176592,14.81290734,14.66783037,0.348067814,0.35900006,10.54567824,10.54567824,0.604865431,0.688875084,34.56600736,34.33260353,15.25983859,26,21,97,104,3.559496032,3
731.0078122,9.959165245,10.22032942,14.90285596,14.64422401,0.346139646,0.360684018,10.60573208,10.60573208,0.606174985,0.693385318,34.56423545,34.33212102,15.25983859,26,21,97,104,3.559496032,3
732.0078122,9.961065776,10.21576464,14.9295338,14.68050959,0.343053891,0.356932699,10.64848272,10.64848272,0.607478218,0.697820017,34.5626142,34.3315365,15.25983859,26,21,97,104,3.559496032,3
733.0078122,9.961380466,10.20578917,14.91983546,14.75034093,0.339792824,0.349039789,10.66310516,10.66310516,0.608751354,0.702173789,34.56101197,34.33098192,15.32595282,26,21,96,104,3.559496032,3
734.0078122,9.960648745,10.19866701,14.92935366,14.78224898,0.336737204,0.339882677,10.65862716,10.65862716,0.609990646,0.706469673,34.55940936,34.3304656,15.32595282,26,21,96,104,3.559496032,3
735.0078122,9.959408725,10.19809646,14.99292549,14.74374946,0.333878853,0.332300073,10.64700359,10.64700359,0.611207477,0.710668656,34.55783883,34.33000186,15.38809619,26,21,96,104,3.559496032,3
736.0078122,9.958024781,10.19803369,15.09235801,14.65410799,0.331062519,0.327690826,10.63112484,10.63112484,0.612382998,0.714753189,34.55628087,34.32956179,15.38809619,26,21,96,104,3.559496032,3
737.0078122,9.95756671,10.19362877,15.16453646,14.55343297,0.328072531,0.325711922,10.61483825,10.61483825,0.613523851,0.718745474,34.55456643,34.32900758,15.44048021,26,21,96,104,3.559496032,3
738.0078122,9.958750167,10.18854634,15.15598205,14.48201792,0.324845739,0.325174037,10.60589614,10.60589614,0.614611041,0.722626235,34.55292857,34.32847364,15.44048021,26,21,96,104,3.559496032,3
739.0078122,9.961104813,10.18695392,15.0676813,14.47034757,0.321697098,0.325212917,10.60698548,10.60698548,0.615625281,0.726387751,34.551392,34.32801131,15.44048021,26,21,96,104,3.559496032,3
740.0078122,9.963090197,10.18869758,14.95217307,14.52168192,0.319112795,0.325595863,10.60965628,10.60965628,0.616568876,0.730014231,34.54987947,34.32756789,15.47862453,26,21,96,105,3.559496032,3
741.0078122,9.963074517,10.1930946,14.87467857,14.59584593,0.317236773,0.326079988,10.59978793,10.59978793,0.617427126,0.733487118,34.54831544,34.32710142,15.47862453,26,21,96,105,3.559496032,3
742.0078122,9.961760355,10.19872907,14.86609083,14.63724445,0.315686961,0.325890314,10.56893392,10.56893392,0.618212595,0.736735755,34.54676473,34.32653383,15.49978363,26,21,95,105,3.559496032,3
743.0078122,9.961592052,10.20134465,14.89767478,14.63389079,0.313925226,0.324158911,10.51724836,10.51724836,0.618929863,0.739844949,34.5452275,34.32588022,15.49978363,26,21,95,105,3.559496032,3
744.0078122,9.962997618,10.19773616,14.90691274,14.62608203,0.31167896,0.320916403,10.45502412,10.45502412,0.619571079,0.742817796,34.54372573,34.32536016,15.50314906,26,21,95,105,3.559496032,3
745.0078122,9.963986402,10.19091429,14.86402397,14.64882757,0.309062323,0.317440527,10.40880072,10.40880072,0.620117219,0.745672265,34.54227407,34.32470409,15.50314906,26,21,95,105,3.559496032,3
746.0078122,9.96314385,10.18792404,14.80185281,14.69220811,0.306475642,0.3153849,10.40796375,10.40796375,0.620559173,0.748481138,34.54080072,34.32415437,15.50314906,26,21,95,105,3.559496032,3
747.0078122,9.960371639,10.19163794,14.76494491,14.73174792,0.304468279,0.315423486,10.45472294,10.45472294,0.62090007,0.751102532,34.53933826,34.32366504,15.48981861,26,21,95,106,3.559496032,3
748.0078122,9.955963942,10.19804341,14.75496952,14.7600943,0.303576261,0.316724151,10.52176855,10.52176855,0.621148611,0.753448711,34.53800969,34.3231401,15.48981861,26,21,95,106,3.559496032,3
749.0078122,9.951140744,10.20255368,14.7479666,14.77628798,0.304165482,0.31771078,10.58055622,10.58055622,0.621328771,0.755703582,34.53665584,34.32253607,15.46255435,26,21,95,106,3.559496032,3
750.0078122,9.947842244,10.2047168,14.73335392,14.79044959,0.306391821,0.31728601,10.6210354,10.6210354,0.6214047,0.757785496,34.53524125,34.32182157,15.46255435,26,21,95,106,3.559496032,3
751.0078122,9.947090512,10.20573072,14.71743843,14.83431759,0.310218165,0.315401217,10.64623722,10.64623722,0.621399748,0.759671736,34.5338137,34.32111982,15.42537575,25,22,95,106,3.559496032,3
752.0078122,9.94854263,10.20489945,14.714854,14.9239404,0.315270513,0.312669679,10.65522404,10.65522404,0.621319953,0.761452382,34.53241483,34.32029433,15.42537575,25,22,95,106,3.559496032,3
753.0078122,9.951375064,10.20092609,14.73880412,15.02408776,0.320604511,0.309635382,10.63979723,10.63979723,0.621160008,0.763141248,34.53117703,34.31954615,15.38305112,25,22,94,106,3.559496032,3
754.0078122,9.954825913,10.19610631,14.78633425,15.07096798,0.32482948,0.306500742,10.6015217,10.6015217,0.620921073,0.764662952,34.52993232,34.31872409,15.38305112,25,22,94,106,3.559496032,3
755.0078122,9.958124815,10.1944722,14.84742533,15.02829998,0.326765719,0.303438141,10.56024312,10.56024312,0.620615816,0.765996495,34.52860283,34.31794308,15.38305112,25,22,94,106,3.559496032,3
756.0078122,9.960705388,10.19464617,14.91903274,14.92090925,0.32602643,0.300960116,10.53719039,10.53719039,0.620228929,0.767175413,34.5273211,34.31728456,15.34055748,25,22,94,106,3.559496032,3
757.0078122,9.962690543,10.19178947,14.98508252,14.81228281,0.323077804,0.299850142,10.53591055,10.53591055,0.619784536,0.768091327,34.52608566,34.31646867,15.34055748,25,22,94,106,3.559496032,3
758.0078122,9.964097979,10.18557135,15.01169172,14.75136911,0.318917805,0.300875476,10.54014768,10.54014768,0.61929013,0.768973703,34.52476676,34.31561059,15.34055748,25,22,94,106,3.559496032,3
759.0078122,9.963719621,10.17894,14.98764772,14.74620389,0.314880475,0.304463278,10.52711145,10.52711145,0.618728773,0.769829261,34.52345718,34.31478634,15.30257661,25,22,94,106,3.559496032,3
760.0078122,9.960838726,10.17360551,14.94957268,14.78863048,0.312441904,0.310261408,10.48591872,10.48591872,0.618111995,0.770554461,34.52218135,34.31397446,15.30257661,25,22,94,106,3.559496032,3
761.0078122,9.957714887,10.17182519,14.94792804,14.87935735,0.312600628,0.316839147,10.42379066,10.42379066,0.617440611,0.771238565,34.52094404,34.31301878,15.27308447,25,21,94,106,3.559496032,3
762.0078122,9.957378838,10.17610739,14.99884213,15.00442569,0.315111235,0.322159528,10.35880566,10.35880566,0.616711686,0.771815857,34.51975989,34.31203268,15.27308447,25,21,94,106,3.559496032,3
763.0078122,9.959288533,10.18408042,15.080137,15.10863323,0.318530851,0.324775153,10.30983351,10.30983351,0.615923093,0.772313687,34.518549,34.31099317,15.25507339,25,21,94,106,3.559496032,3
764.0078122,9.960385848,10.18911963,15.15082359,15.13726292,0.321359783,0.324699001,10.28529695,10.28529695,0.615090483,0.772817281,34.5174164,34.30995421,15.25507339,25,21,94,106,3.559496032,3
765.0078122,9.959507775,10.18782887,15.17701353,15.10510154,0.323163775,0.323118582,10.27871107,10.27871107,0.614223374,0.773292225,34.51628609,34.30880478,15.25042481,25,21,94,106,3.559496032,3
766.0078122,9.957738547,10.18351949,15.16159419,15.07572117,0.324476051,0.321339184,10.27988519,10.27988519,0.613311121,0.77361946,34.51506954,34.30755669,15.25042481,25,21,94,106,3.559496032,3
767.0078122,9.956260144,10.18162532,15.13349431,15.07810844,0.325772673,0.320024006,10.28613961,10.28613961,0.612319624,0.773829335,34.51385148,34.30634156,15.25042481,25,21,94,106,3.559496032,3
768.0078122,9.955860673,10.18443846,15.1107369,15.09023829,0.326816101,0.319302218,10.29836926,10.29836926,0.611293136,0.773927971,34.51263556,34.30508038,15.25992812,25,21,94,106,3.559496032,3
769.0078122,9.957166439,10.18972359,15.09331651,15.07928624,0.326956262,0.319335458,10.31305047,10.31305047,0.610278149,0.774046401,34.5114974,34.30382252,15.25992812,25,21,94,106,3.559496032,3
770.0078122,9.960357742,10.19280222,15.07760326,15.02595483,0.325792886,0.320497297,10.32286695,10.32286695,0.609263882,0.774168009,34.5103739,34.30251643,15.2834205,25,22,94,106,3.559496032,3
771.0078122,9.963887525,10.19167156,15.06388249,14.94122798,0.323477191,0.322843365,10.32601764,10.32601764,0.608259926,0.774325999,34.50921514,34.30114218,15.2834205,25,22,94,106,3.559496032,3
772.0078122,9.964870882,10.18956817,15.05355079,14.86451762,0.320531976,0.325608417,10.33352853,10.33352853,0.607268666,0.774481254,34.50806471,34.29969623,15.2834205,25,22,94,106,3.559496032,3
773.0078122,9.9622523,10.18956183,15.03716173,14.82405783,0.317595223,0.327678524,10.35909289,10.35909289,0.606290911,0.77464308,34.50694486,34.29816496,15.32000831,25,22,94,106,3.559496032,3
774.0078122,9.957755528,10.189641,14.99674726,14.81449567,0.315333776,0.328801809,10.40004149,10.40004149,0.605273391,0.774695299,34.50591713,34.29663474,15.32000831,25,22,94,106,3.559496032,3
775.0078122,9.953561944,10.18679939,14.93626373,14.82502795,0.314308327,0.330057125,10.43846508,10.43846508,0.604281811,0.774737827,34.5049386,34.29500082,15.36832317,25,22,94,106,3.559496032,3
776.0078122,9.950690212,10.18173017,14.89499062,14.86935709,0.314581523,0.332733745,10.46241749,10.46241749,0.603322432,0.774927467,34.50407563,34.2933344,15.36832317,25,22,94,106,3.559496032,3
777.0078122,9.949198221,10.17759769,14.91477809,14.95407104,0.315452124,0.336743849,10.47721522,10.47721522,0.602411644,0.775095341,34.50301808,34.29162629,15.42676705,24,22,95,105,3.559496032,3
778.0078122,9.948891162,10.17786826,14.99605422,15.03256184,0.315882421,0.340350659,10.4963296,10.4963296,0.601499479,0.7751269,34.50193236,34.28989256,15.42676705,24,22,95,105,3.559496032,3
779.0078122,9.949883963,10.1844601,15.09512241,15.04787916,0.315421365,0.341456188,10.52636324,10.52636324,0.600575111,0.775140374,34.50088321,34.28815826,15.42676705,24,22,95,105,3.559496032,3
780.0078122,9.951909866,10.19558636,15.16634386,15.00687073,0.314699973,0.339054667,10.55713631,10.55713631,0.599652129,0.775155404,34.49993164,34.28627647,15.49371013,24,22,95,105,3.559496032,3
781.0078122,9.953284716,10.20514478,15.18749125,14.96300362,0.314943481,0.333651963,10.56537619,10.56537619,0.598736863,0.775229268,34.49893385,34.28435056,15.49371013,24,22,95,105,3.559496032,3
782.0078122,9.952332722,10.20522757,15.15518993,14.94463692,0.316949559,0.326726961,10.53633001,10.53633001,0.597862232,0.775368367,34.49797614,34.28237458,15.56761972,24,22,95,105,3.559496032,3
783.0078122,9.94963518,10.19419889,15.08607371,14.93084645,0.320424479,0.320071945,10.48348767,10.48348767,0.597016382,0.775722441,34.4971013,34.28032405,15.56761972,24,22,95,105,3.559496032,3
784.0078122,9.947362289,10.18177947,15.0107558,14.88961576,0.324134098,0.315195412,10.43889216,10.43889216,0.5962137,0.776156392,34.49614401,34.27816787,15.56761972,24,22,95,105,3.559496032,3
785.0078122,9.946337389,10.17887086,14.95101328,14.82128061,0.326596162,0.312754621,10.4257795,10.4257795,0.595426576,0.776602688,34.49518521,34.27613071,15.64711593,24,22,95,105,3.559496032,3
786.0078122,9.945999905,10.18484235,14.90968714,14.75810376,0.326739093,0.312181415,10.44563202,10.44563202,0.594644959,0.777081511,34.49427596,34.27405417,15.64711593,24,22,95,105,3.559496032,3
787.0078122,9.946511893,10.19122154,14.88270345,14.72965739,0.324220399,0.312005122,10.48218535,10.48218535,0.593846315,0.777516666,34.49337368,34.27183185,15.64711593,24,22,95,105,3.559496032,3
788.0078122,9.947880613,10.19334084,14.86658901,14.72894492,0.319435082,0.310869954,10.51783888,10.51783888,0.593135699,0.778146612,34.49251167,34.26950741,15.73096565,24,22,95,105,3.559496032,3
789.0078122,9.949142956,10.19246024,14.85077193,14.72272715,0.313329857,0.308462977,10.55056975,10.55056975,0.592519988,0.778929224,34.49170086,34.26717499,15.73096565,24,22,95,105,3.559496032,3
790.0078122,9.949622566,10.19006224,14.81670986,14.70376119,0.307118252,0.305602928,10.58628458,10.58628458,0.591948705,0.779738223,34.49083034,34.26473282,15.81803799,24,22,95,105,3.559496032,3
791.0078122,9.949025123,10.18599593,14.7578373,14.69913923,0.301986723,0.303537997,10.62264682,10.62264682,0.591392638,0.78062655,34.48995705,34.26234678,15.81803799,24,22,95,105,3.559496032,3
792.0078122,9.947429172,10.18158325,14.69541038,14.72081212,0.298858075,0.303090324,10.65243045,10.65243045,0.590858846,0.781584659,34.48903416,34.25998224,15.90724915,24,22,95,105,3.559496032,3
793.0078122,9.945924203,10.18011695,14.65854931,14.75344932,0.298246585,0.304242741,10.66737562,10.66737562,0.590352714,0.782593933,34.48812345,34.25746975,15.90724915,24,22,95,105,3.559496032,3
794.0078122,9.94568974,10.18317509,14.65202079,14.79225064,0.300184018,0.306388414,10.65416481,10.65416481,0.589860699,0.783630813,34.4871797,34.2548624,15.90724915,24,22,95,105,3.559496032,3
795.0078122,9.946317512,10.18861813,14.65521055,14.84796242,0.304183442,0.30903741,10.60946847,10.60946847,0.589393919,0.784707012,34.48612749,34.25219151,15.99752192,24,22,95,105,3.559496032,3
796.0078122,9.946084112,10.19330809,14.6482337,14.91390101,0.309274675,0.312371073,10.55544613,10.55544613,0.588952184,0.78583955,34.48506416,34.24944163,15.99752192,24,22,95,105,3.559496032,3
797.0078122,9.944105106,10.19592627,14.62814216,14.95668908,0.314332826,0.317154239,10.51793261,10.51793261,0.588535141,0.787004643,34.48421312,34.24674633,16.08777683,24,22,96,104,3.559496032,3
798.0078122,9.941538424,10.19577428,14.61101341,14.9440782,0.318603872,0.323946573,10.50134264,10.50134264,0.588149888,0.788192605,34.48336613,34.24405209,16.08777683,24,22,96,104,3.559496032,3
799.0078122,9.940483935,10.19198992,14.63064099,14.87650907,0.321970249,0.332178849,10.50060508,10.50060508,0.587804808,0.789408963,34.48239271,34.24123703,16.08777683,24,22,96,104,3.559496032,3
800.0078122,9.942146138,10.18660184,14.71073982,14.79344975,0.324615945,0.339863408,10.52231898,10.52231898,0.587463458,0.790641146,34.4813428,34.23833437,16.17695886,24,22,96,104,3.559496032,3
801.0078122,9.946117385,10.18487779,14.82999268,14.75213943,0.326398583,0.344412166,10.57714229,10.57714229,0.587139041,0.791881899,34.48038155,34.23544128,16.17695886,24,22,96,104,3.559496032,3
802.0078122,9.950607621,10.18955091,14.93510524,14.78146783,0.326631177,0.344208186,10.65410555,10.65410555,0.586845904,0.793107246,34.47935429,34.23259489,16.26409132,24,22,96,104,3.559496032,3
803.0078122,9.953537842,10.19687966,14.98730803,14.84280703,0.324592357,0.339693649,10.72011275,10.72011275,0.586605996,0.79432561,34.47830442,34.22972123,16.26409132,24,22,96,104,3.559496032,3
804.0078122,9.954300106,10.19993987,14.98149065,14.86355083,0.320285416,0.332943159,10.75212523,10.75212523,0.586372527,0.795574655,34.47723228,34.22675607,16.34833849,24,22,96,104,3.559496032,3
805.0078122,9.953566368,10.19478861,14.92498631,14.82510931,0.314631095,0.326176599,10.75377897,10.75377897,0.586176116,0.796822,34.47614923,34.22384615,16.34833849,24,22,96,104,3.559496032,3
806.0078122,9.951752396,10.18328645,14.8263639,14.78162357,0.308884387,0.320662262,10.73713236,10.73713236,0.585981202,0.798061732,34.47501779,34.22096889,16.34833849,24,22,96,104,3.559496032,3
807.0078122,9.948923375,10.17183271,14.71509213,14.77416308,0.304000309,0.316744311,10.71085392,10.71085392,0.585800103,0.799348141,34.4738228,34.21802329,16.42905439,24,22,96,104,3.559496032,3
808.0078122,9.945626372,10.16784196,14.63563789,14.77814976,0.300692404,0.314493373,10.68875574,10.68875574,0.585626996,0.800612429,34.47265025,34.21508426,16.42905439,24,22,96,104,3.559496032,3
809.0078122,9.94262556,10.17329632,14.60091869,14.76483788,0.299996674,0.314312041,10.68395799,10.68395799,0.585472642,0.80181498,34.47141208,34.21213338,16.5057981,24,22,96,104,3.559496032,3
810.0078122,9.939979267,10.18137928,14.58715561,14.76201616,0.303201007,0.317111787,10.6902345,10.6902345,0.585338877,0.802957773,34.47014653,34.20920521,16.5057981,24,22,96,104,3.559496032,3
811.0078122,9.937912039,10.18384085,14.57931999,14.82000761,0.31080239,0.324032488,10.68426892,10.68426892,0.585218501,0.804038752,34.46896183,34.20625495,16.57830483,24,22,96,104,3.559496032,3
812.0078122,9.937701996,10.1799377,14.60289949,14.94628485,0.321417867,0.335582347,10.64443953,10.64443953,0.585081691,0.805072884,34.46778654,34.20336292,16.57830483,24,22,96,104,3.559496032,3
813.0078122,9.939883708,10.17633811,14.71092202,15.07455708,0.332005424,0.350408092,10.56598198,10.56598198,0.58495211,0.806051915,34.46639421,34.20051646,16.57830483,24,22,96,104,3.559496032,3
814.0078122,9.942427671,10.17938145,14.90385023,15.09670439,0.33948677,0.364632735,10.46978419,10.46978419,0.584820941,0.806990947,34.4648809,34.19770062,16.64641573,24,22,95,104,3.559496032,3
815.0078122,9.943020268,10.18709911,15.07529648,14.97266274,0.342343797,0.372991969,10.39385843,10.39385843,0.584682299,0.80783024,34.46356473,34.19491522,16.64641573,24,22,95,104,3.559496032,3
816.0078122,9.943021582,10.1923402,15.10655277,14.79791735,0.340863193,0.371736727,10.36432403,10.36432403,0.584503188,0.808476775,34.46226238,34.19202266,16.64641573,24,22,95,104,3.559496032,3
817.0078122,9.945750246,10.19268447,14.98671844,14.70169503,0.336240411,0.361173133,10.37753955,10.37753955,0.584326688,0.809049736,34.46092563,34.18914312,16.70998294,24,23,95,104,3.559496032,3
818.0078122,9.951236917,10.19095653,14.79763735,14.70412779,0.329704587,0.345458364,10.41153594,10.41153594,0.584147054,0.80959165,34.45961041,34.18635595,16.70998294,24,23,95,104,3.559496032,3
819.0078122,9.956390186,10.18977589,14.63568855,14.7339528,0.32229639,0.329781746,10.44455527,10.44455527,0.583978509,0.810197446,34.45823926,34.18357973,16.70998294,24,23,95,104,3.559496032,3
820.0078122,9.959358515,10.19014586,14.56052161,14.74544698,0.315042834,0.317466165,10.4612798,10.4612798,0.583786216,0.81084336,34.45679612,34.18075241,16.76877764,24,23,95,104,3.559496032,3
821.0078122,9.960777537,10.19269989,14.56608178,14.74497601,0.309052418,0.309111856,10.45423792,10.45423792,0.583579718,0.811377318,34.4553188,34.17807263,16.76877764,24,23,95,104,3.559496032,3
822.0078122,9.961916605,10.19917691,14.59627615,14.74013458,0.305276967,0.303662874,10.43050158,10.43050158,0.583346462,0.811831214,34.45389777,34.1754826,16.82243216,24,23,95,104,3.559496032,3
823.0078122,9.963185006,10.2101163,14.59951671,14.72988047,0.304137959,0.300015278,10.4132887,10.4132887,0.583099897,0.812202093,34.45245586,34.17287366,16.82243216,24,23,95,104,3.559496032,3
824.0078122,9.963888478,10.21988588,14.56938852,14.71436368,0.305238377,0.297696914,10.42337991,10.42337991,0.58282788,0.812500692,34.45104415,34.17029405,16.82243216,24,23,95,104,3.559496032,3
825.0078122,9.96300425,10.22077184,14.54158138,14.68444855,0.30753819,0.296578154,10.45682614,10.45682614,0.58253657,0.812733806,34.44965839,34.16770987,16.87044289,24,23,95,104,3.559496032,3
826.0078122,9.96025272,10.21300685,14.54032381,14.64272426,0.309896893,0.296418314,10.4863989,10.4863989,0.582210852,0.812919091,34.44831231,34.16513307,16.87044289,24,23,95,104,3.559496032,3
827.0078122,9.956402996,10.20361327,14.54644875,14.62650157,0.311697402,0.297007722,10.48031874,10.48031874,0.581868855,0.813065359,34.44695424,34.16255437,16.91224707,24,23,95,104,3.559496032,3
828.0078122,9.952517477,10.19838106,14.55461949,14.66344732,0.313169543,0.298554289,10.42049563,10.42049563,0.581505989,0.813190947,34.44559075,34.15996447,16.91224707,24,23,95,104,3.559496032,3
829.0078122,9.949997668,10.19935002,14.60533094,14.74138124,0.315016295,0.301459594,10.3136178,10.3136178,0.581118202,0.813253842,34.44427859,34.15744302,16.91224707,24,23,95,104,3.559496032,3
830.0078122,9.950515539,10.20320047,14.70769909,14.83527819,0.317431257,0.305510876,10.19069578,10.19069578,0.580704816,0.813261673,34.44294209,34.15502388,16.94736781,24,23,95,104,3.559496032,3
831.0078122,9.953959092,10.20335083,14.8010328,14.91477619,0.319451432,0.309486417,10.09524259,10.09524259,0.580257269,0.813191259,34.44164045,34.15277081,16.94736781,24,23,95,104,3.559496032,3
832.0078122,9.958191863,10.19958499,14.82940895,14.9518676,0.319525115,0.311819645,10.06091782,10.06091782,0.579786631,0.813044,34.44035062,34.15054118,16.94736781,24,23,95,104,3.559496032,3
833.0078122,9.961636286,10.19831379,14.80455289,14.94530561,0.316831859,0.311754329,10.0919823,10.0919823,0.57927622,0.812882567,34.4389844,34.14834198,16.97560116,24,23,95,104,3.559496032,3
834.0078122,9.964265457,10.20164306,14.78365081,14.9089995,0.311975942,0.30986453,10.16828102,10.16828102,0.578761346,0.812777475,34.43759766,34.14612379,16.97560116,24,23,95,104,3.559496032,3
835.0078122,9.966263988,10.20589163,14.80114041,14.85909548,0.306416767,0.307480158,10.25907149,10.25907149,0.578255551,0.812768809,34.43625682,34.14388499,16.97560116,24,23,95,104,3.559496032,3
836.0078122,9.966748169,10.20913876,14.84218456,14.81416522,0.301474395,0.305670572,10.32789069,10.32789069,0.577727799,0.812718681,34.43494693,34.14166387,16.9972031,24,23,94,104,3.559496032,3
837.0078122,9.965168847,10.21259596,14.88426597,14.7726188,0.297794084,0.304660187,10.3470323,10.3470323,0.577212239,0.812700604,34.4336455,34.13951187,16.9972031,24,23,94,104,3.559496032,3
838.0078122,9.963194785,10.21727443,14.92209606,14.72194989,0.295497569,0.304047503,10.31856476,10.31856476,0.576705486,0.812866407,34.43238272,34.13734106,17.01302761,24,23,94,104,3.559496032,3
839.0078122,9.962405323,10.22268316,14.94432901,14.67944996,0.294501971,0.303432781,10.27512161,10.27512161,0.576213849,0.813166285,34.43113295,34.13516582,17.01302761,24,23,94,104,3.559496032,3
840.0078122,9.961979305,10.22615296,14.92590026,14.67137191,0.294662552,0.302826114,10.25502354,10.25502354,0.575695411,0.813413382,34.42987496,34.13311239,17.02457211,24,23,94,104,3.559496032,3
841.0078122,9.960789948,10.22502439,14.86558059,14.68648595,0.295825733,0.302561721,10.27449505,10.27449505,0.575145716,0.813645476,34.42859359,34.13107477,17.02457211,24,23,94,104,3.559496032,3
842.0078122,9.959277105,10.22153245,14.80829553,14.68943177,0.297927,0.302987525,10.3255153,10.3255153,0.574586618,0.813938965,34.42741901,34.12900346,17.03390393,24,23,94,104,3.559496032,3
843.0078122,9.957863539,10.22029964,14.79301578,14.65921612,0.300990138,0.304322613,10.39399978,10.39399978,0.574016142,0.814025958,34.42622872,34.12692971,17.03390393,24,23,94,104,3.559496032,3
844.0078122,9.956101753,10.22084986,14.80490029,14.607485,0.304847295,0.306692004,10.46836852,10.46836852,0.573439036,0.814064845,34.42510002,34.12490243,17.03390393,24,23,94,104,3.559496032,3
845.0078122,9.953738017,10.21922614,14.82168732,14.57537249,0.308740497,0.310021586,10.53230962,10.53230962,0.572864246,0.81419853,34.42402169,34.12278344,17.04346733,24,23,94,104,3.559496032,3
846.0078122,9.950862334,10.21547494,14.8508559,14.59564051,0.311255871,0.313705898,10.5621517,10.5621517,0.572305532,0.81438293,34.42288723,34.12054274,17.04346733,24,23,94,104,3.559496032,3
847.0078122,9.948034083,10.21313603,14.87894054,14.64567944,0.310920403,0.316507764,10.54191578,10.54191578,0.571748948,0.814607613,34.42172006,34.11831483,17.04346733,24,23,94,104,3.559496032,3
848.0078122,9.946155602,10.21298053,14.85553336,14.65750004,0.307214755,0.317181928,10.47854701,10.47854701,0.571155911,0.814824372,34.42051128,34.11609795,17.05579867,24,23,94,104,3.559496032,3
849.0078122,9.945724739,10.21236238,14.75979362,14.58546881,0.301199769,0.315455167,10.39642481,10.39642481,0.570511116,0.815123678,34.41932437,34.11395336,17.05579867,24,23,94,104,3.559496032,3
850.0078122,9.946944342,10.21010057,14.63757345,14.46178663,0.295111827,0.31247961,10.32307338,10.32307338,0.569876755,0.815504352,34.41819529,34.11178246,17.07320101,24,23,94,104,3.559496032,3
851.0078122,9.949281975,10.20763203,14.56114446,14.37888541,0.291242887,0.310246068,10.27914836,10.27914836,0.569299502,0.815964344,34.41696345,34.10956903,17.07320101,24,23,94,104,3.559496032,3
852.0078122,9.951210098,10.20466464,14.56662951,14.39788698,0.291047064,0.310456342,10.26749424,10.26749424,0.568785036,0.816489708,34.4156927,34.10742505,17.07320101,24,23,94,104,3.559496032,3
853.0078122,9.951959744,10.19804887,14.63501985,14.48355246,0.294925846,0.313616771,10.27091451,10.27091451,0.568300109,0.81705325,34.41448982,34.10532008,17.09744123,24,23,94,104,3.559496032,3
854.0078122,9.952397094,10.18763172,14.7278692,14.56744384,0.302358189,0.318798711,10.27033566,10.27033566,0.567822128,0.817678197,34.41326037,34.10313411,17.09744123,24,23,94,104,3.559496032,3
855.0078122,9.953771413,10.17884358,14.81449548,14.6439486,0.311995974,0.324138358,10.26234004,10.26234004,0.567370572,0.818377169,34.41210575,34.10095107,17.12952986,24,23,94,104,3.559496032,3
856.0078122,9.956243321,10.17600497,14.86772152,14.74331579,0.321842821,0.32778232,10.25620333,10.25620333,0.566937108,0.81918581,34.41090347,34.09882445,17.12952986,24,23,94,104,3.559496032,3
857.0078122,9.958730591,10.17671338,14.86952882,14.85062928,0.329790494,0.328726306,10.26001586,10.26001586,0.566532867,0.819978466,34.4096038,34.09667263,17.16962594,24,23,94,104,3.559496032,3
858.0078122,9.960735404,10.17566949,14.8280197,14.91093003,0.334389438,0.327168669,10.26991561,10.26991561,0.566139076,0.820722116,34.40828413,34.09454187,17.16962594,24,23,94,104,3.559496032,3
859.0078122,9.962979234,10.17228304,14.77516988,14.89204642,0.33535274,0.324370431,10.27335056,10.27335056,0.565749613,0.821393212,34.40695849,34.09234814,17.21708001,24,23,94,104,3.559496032,3
860.0078122,9.965358464,10.17090069,14.74195308,14.81828338,0.333442771,0.322071348,10.26090825,10.26090825,0.565416332,0.82212821,34.40565068,34.09017528,17.21708001,24,23,94,104,3.559496032,3
861.0078122,9.966725832,10.17405285,14.74147415,14.74651485,0.329881698,0.32149634,10.22872151,10.22872151,0.56509502,0.822904317,34.40420055,34.08798998,17.27059672,25,23,94,104,3.559496032,3
862.0078122,9.966743582,10.17912476,14.77263377,14.70880439,0.325762999,0.322476049,10.18021901,10.18021901,0.56482638,0.82379272,34.40277987,34.0857984,17.27059672,25,23,94,104,3.559496032,3
863.0078122,9.966230544,10.18146539,14.81697355,14.68992613,0.321697869,0.323488973,10.13170359,10.13170359,0.564585271,0.824834672,34.40138892,34.08356578,17.27059672,25,23,94,104,3.559496032,3
864.0078122,9.966109521,10.18034822,14.84271437,14.66916495,0.317772825,0.322872228,10.10248353,10.10248353,0.56437743,0.825978492,34.3999732,34.08141313,17.3284705,25,24,94,104,3.559496032,3
865.0078122,9.966475588,10.18128817,14.84208547,14.64822925,0.313769407,0.320138031,10.10023318,10.10023318,0.564262818,0.827313073,34.39852724,34.07927654,17.3284705,25,24,94,104,3.559496032,3
866.0078122,9.966927038,10.18938317,14.841251,14.61908941,0.309495452,0.316142068,10.11320484,10.11320484,0.56421182,0.828712893,34.39708351,34.07704557,17.3284705,25,24,94,104,3.559496032,3
867.0078122,9.967189205,10.20167149,14.85025302,14.55225856,0.305014729,0.312127954,10.10839471,10.10839471,0.564189543,0.830079311,34.39565257,34.07482304,17.38883342,24,24,94,105,3.559496032,3
868.0078122,9.967334567,10.20974537,14.83916085,14.44319767,0.30070845,0.308843623,10.06232976,10.06232976,0.564169777,0.831422781,34.39411645,34.07268842,17.38883342,24,24,94,105,3.559496032,3
869.0078122,9.968064726,10.20922225,14.78516277,14.3343701,0.297222686,0.306543181,9.995889606,9.995889606,0.564128228,0.832733026,34.39251209,34.07060256,17.44985478,24,24,94,105,3.559496032,3
870.0078122,9.969083464,10.20489264,14.71353985,14.2722043,0.295264025,0.305453323,9.951620338,9.951620338,0.56408958,0.834001845,34.39101628,34.06860643,17.44985478,24,24,94,105,3.559496032,3
871.0078122,9.967509914,10.20628999,14.67566388,14.26876673,0.295208326,0.305864892,9.952280671,9.952280671,0.56406541,0.835269252,34.38940348,34.06658802,17.50984958,24,24,94,105,3.559496032,3
872.0078122,9.960974508,10.21765552,14.69478885,14.31465567,0.296742956,0.307717126,9.997869026,9.997869026,0.564083762,0.836570974,34.38765075,34.06455453,17.50984958,24,24,94,105,3.559496032,3
873.0078122,9.952128004,10.23159693,14.73867807,14.39249357,0.298895201,0.310260762,10.08105324,10.08105324,0.564145786,0.83793148,34.38599676,34.06246708,17.50984958,24,24,94,105,3.559496032,3
874.0078122,9.946016086,10.23617801,14.76148674,14.47457639,0.300547402,0.312298369,10.19056251,10.19056251,0.564214152,0.839309286,34.38442757,34.06046628,17.56728052,24,24,94,105,3.559496032,3
875.0078122,9.944566737,10.22766672,14.76090005,14.53977594,0.301125713,0.312904838,10.30628688,10.30628688,0.564281067,0.840675318,34.38274923,34.05849825,17.56728052,24,24,94,105,3.559496032,3
876.0078122,9.946294273,10.21361553,14.76769288,14.59541902,0.300889477,0.312042304,10.40189181,10.40189181,0.564376346,0.842034134,34.38099756,34.05646628,17.56728052,24,24,94,105,3.559496032,3
877.0078122,9.949238074,10.20216735,14.79900451,14.65609692,0.300560303,0.310588811,10.4585633,10.4585633,0.564475622,0.843393472,34.37919918,34.05454582,17.62067042,24,24,94,105,3.559496032,3
878.0078122,9.951831537,10.19439523,14.85484362,14.72031497,0.300606685,0.309672245,10.47455629,10.47455629,0.564580689,0.844739612,34.37734839,34.05279171,17.62067042,24,24,94,105,3.559496032,3
879.0078122,9.953751401,10.18813668,14.93145983,14.77865853,0.300911336,0.309831708,10.45912129,10.45912129,0.564701331,0.846000875,34.37551191,34.05096755,17.66846788,25,24,94,106,3.559496032,3
880.0078122,9.955865381,10.18328809,15.01039549,14.82430815,0.301104437,0.310689076,10.42346732,10.42346732,0.564824086,0.847153285,34.37377457,34.04923874,17.66846788,25,24,94,106,3.559496032,3
881.0078122,9.957775816,10.18141478,15.05296713,14.85602694,0.301079608,0.311354422,10.38121767,10.38121767,0.564953084,0.848321493,34.37207767,34.04759264,17.66846788,25,24,94,106,3.559496032,3
882.0078122,9.95748777,10.1821493,15.0239095,14.88015889,0.301058601,0.311158199,10.35240647,10.35240647,0.565105069,0.849529336,34.37031395,34.04586142,17.70892398,25,24,94,106,3.559496032,3
883.0078122,9.954462788,10.18252107,14.92835796,14.90907884,0.301200814,0.310110259,10.35441848,10.35441848,0.565255685,0.850750205,34.3684628,34.04414752,17.70892398,25,24,94,106,3.559496032,3
884.0078122,9.951304685,10.1814111,14.81762049,14.95050981,0.301327533,0.308786943,10.37795032,10.37795032,0.565400835,0.85194989,34.36660817,34.0425686,17.74003591,25,24,94,106,3.559496032,3
885.0078122,9.951352314,10.18194339,14.74272589,14.98520472,0.301153254,0.307820426,10.38891624,10.38891624,0.565553019,0.853113294,34.36470454,34.04104015,17.74003591,25,24,94,106,3.559496032,3
886.0078122,9.954974713,10.18677247,14.71340344,14.97762152,0.300742098,0.307469838,10.37214223,10.37214223,0.565700804,0.854209043,34.36284315,34.03974986,17.75959703,25,24,94,106,3.559496032,3
887.0078122,9.958796095,10.19329694,14.70788679,14.92826247,0.300564697,0.307647091,10.34965955,10.34965955,0.565841228,0.855244897,34.36091338,34.03847573,17.75959703,25,24,94,106,3.559496032,3
888.0078122,9.95939042,10.19637182,14.706729,14.87281919,0.301005626,0.308323369,10.34435515,10.34435515,0.565933104,0.856250526,34.35905843,34.03714141,17.75959703,25,24,94,106,3.559496032,3
889.0078122,9.956951909,10.19504372,14.7144357,14.82786563,0.3019406,0.30987027,10.35742796,10.35742796,0.566013062,0.857218928,34.35725192,34.03595318,17.76536519,25,24,94,107,3.559496032,3
890.0078122,9.953905602,10.19411112,14.74824566,14.78736568,0.302978729,0.312960858,10.38044816,10.38044816,0.566092446,0.858143281,34.35541077,34.03476617,17.76536519,25,24,94,107,3.559496032,3
891.0078122,9.951622809,10.19789015,14.810657,14.75190504,0.304065931,0.318026882,10.39791698,10.39791698,0.566191416,0.859089623,34.35359746,34.03359892,17.75533019,25,24,94,107,3.559496032,3
892.0078122,9.950927961,10.20618554,14.89373859,14.72959697,0.305586985,0.324588134,10.39126711,10.39126711,0.566259735,0.859988718,34.35173611,34.03248684,17.75533019,25,24,94,107,3.559496032,3
893.0078122,9.953801937,10.21639968,14.99320672,14.72825867,0.307759371,0.330915074,10.36362889,10.36362889,0.566304167,0.860724948,34.34991475,34.0313208,17.72803452,25,24,94,107,3.559496032,3
894.0078122,9.960426424,10.22348703,15.08491671,14.75314065,0.310054363,0.334513842,10.34398045,10.34398045,0.566294767,0.861285157,34.3481657,34.03019576,17.72803452,25,24,94,107,3.559496032,3
895.0078122,9.966627495,10.22217403,15.12063134,14.80007964,0.311340186,0.333519052,10.35123741,10.35123741,0.566263494,0.861728543,34.34623225,34.02910557,17.72803452,25,24,94,107,3.559496032,3
896.0078122,9.967775226,10.21331562,15.07097845,14.83977245,0.310641583,0.328147724,10.37388514,10.37388514,0.566249787,0.862212887,34.34424648,34.0281527,17.6828853,25,24,94,107,3.559496032,3
897.0078122,9.963178014,10.20282537,14.95750712,14.8341762,0.307901979,0.320922841,10.39442833,10.39442833,0.566176858,0.862650804,34.34227375,34.02719974,17.6828853,25,24,94,107,3.559496032,3
898.0078122,9.956076685,10.19554313,14.85320046,14.792842,0.304201911,0.315296404,10.40744526,10.40744526,0.566070167,0.862934334,34.34039764,34.02621723,17.62039418,25,24,94,108,3.559496032,3
899.0078122,9.950893418,10.19290247,14.8414156,14.76844242,0.301226224,0.313691837,10.40821724,10.40821724,0.565922242,0.863030163,34.33846688,34.02530214,17.62039418,25,24,94,108,3.559496032,3
900.0078122,9.949448758,10.19407271,14.94589007,14.79161998,0.300269342,0.31634014,10.38643747,10.38643747,0.565761777,0.863130663,34.33646978,34.0243839,17.62039418,25,24,94,108,3.559496032,3
901.0078122,9.949619364,10.19673997,15.10170738,14.85071353,0.301504847,0.321515409,10.33757277,10.33757277,0.565613411,0.863237841,34.33450156,34.02344615,17.54229428,25,24,94,108,3.559496032,3
902.0078122,9.949045138,10.19725026,15.21088006,14.91535139,0.304112745,0.326674818,10.27183612,10.27183612,0.565442983,0.863284524,34.33245321,34.02254829,17.54229428,25,24,94,108,3.559496032,3
903.0078122,9.948365421,10.19322178,15.23025264,14.96045934,0.307041448,0.329655876,10.20776362,10.20776362,0.565253575,0.863358865,34.33030259,34.02167876,17.4515068,25,24,95,108,3.559496032,3
904.0078122,9.949267738,10.18623429,15.18076726,14.98486151,0.309602183,0.329305744,10.16365435,10.16365435,0.565031777,0.863413517,34.3281999,34.02087849,17.4515068,25,24,95,108,3.559496032,3
905.0078122,9.951881266,10.18035891,15.08898021,15.00966058,0.311404405,0.325610983,10.15644969,10.15644969,0.564770443,0.8633895,34.32607666,34.02004773,17.35195847,25,24,95,108,3.559496032,3
906.0078122,9.954807437,10.17956322,14.98459479,15.0492473,0.312030972,0.319546936,10.19335652,10.19335652,0.564484795,0.863285146,34.32393415,34.01921962,17.35195847,25,24,95,108,3.559496032,3
907.0078122,9.956194344,10.18475606,14.92090037,15.08784253,0.311071856,0.312603593,10.25629504,10.25629504,0.564173536,0.863100436,34.32179565,34.01839387,17.2482778,25,24,95,108,3.559496032,3
908.0078122,9.955297488,10.19104313,14.92382711,15.09500581,0.308470912,0.306089273,10.30568029,10.30568029,0.563830319,0.862773573,34.31970015,34.01762152,17.2482778,25,24,95,108,3.559496032,3
909.0078122,9.953452802,10.19201926,14.95383857,15.05958287,0.304637004,0.300707454,10.31235151,10.31235151,0.563445914,0.862341669,34.31758072,34.01672941,17.2482778,25,24,95,108,3.559496032,3
910.0078122,9.952416729,10.18678086,14.96139159,14.99546861,0.300159146,0.296663631,10.28362236,10.28362236,0.563060426,0.86196965,34.31544014,34.01588964,17.14541773,25,24,95,108,3.559496032,3
911.0078122,9.952241659,10.17916567,14.94234654,14.91247504,0.295562203,0.293963502,10.2505243,10.2505243,0.562637878,0.861590592,34.31331417,34.01495915,17.14541773,25,24,95,108,3.559496032,3
912.0078122,9.952259479,10.17295137,14.91827885,14.81268158,0.291368524,0.292532435,10.23527416,10.23527416,0.562226666,0.861170148,34.31120736,34.01398834,17.14541773,25,24,95,108,3.559496032,3
913.0078122,9.952602656,10.17027706,14.90473541,14.72205244,0.288148939,0.292175614,10.23878432,10.23878432,0.561806605,0.860718874,34.30894822,34.0130296,17.04826117,25,24,95,108,3.559496032,3
914.0078122,9.953578195,10.17153276,14.910598,14.67598431,0.286284314,0.292540162,10.25026731,10.25026731,0.561384814,0.860209184,34.30675064,34.01206825,17.04826117,25,24,95,108,3.559496032,3
915.0078122,9.955159108,10.17526413,14.94094152,14.67857353,0.285790621,0.293167003,10.25675136,10.25675136,0.560966496,0.859642267,34.30454852,34.01105547,16.96126329,25,23,95,108,3.559496032,3
916.0078122,9.956952551,10.17985622,14.9869363,14.71231517,0.286463913,0.293698816,10.24922487,10.24922487,0.560530514,0.858953002,34.3023783,34.00999943,16.96126329,25,23,95,108,3.559496032,3
917.0078122,9.958098486,10.18456704,15.0141053,14.76437379,0.28812048,0.29424195,10.23197401,10.23197401,0.560088457,0.858258878,34.3002213,34.00893163,16.88817175,25,23,95,107,3.559496032,3
918.0078122,9.957973684,10.18784924,14.98388234,14.82879344,0.290478251,0.295613742,10.22381014,10.22381014,0.55964344,0.857619414,34.29799234,34.00780113,16.88817175,25,23,95,107,3.559496032,3
919.0078122,9.957429441,10.18806997,14.91307336,14.89838296,0.292891543,0.299060219,10.24187208,10.24187208,0.559207482,0.857016229,34.29582784,34.00667288,16.83184783,25,23,95,107,3.559496032,3
920.0078122,9.958634125,10.18704907,14.88491904,14.94875268,0.294540745,0.305302273,10.28599837,10.28599837,0.558744117,0.856349277,34.29355389,34.00556282,16.83184783,25,23,95,107,3.559496032,3
921.0078122,9.962131729,10.18840878,14.96311861,14.94398072,0.295036388,0.313425704,10.33905615,10.33905615,0.558301003,0.855606284,34.29133138,34.00438746,16.83184783,25,23,95,107,3.559496032,3
922.0078122,9.964582049,10.1923386,15.1083845,14.88550535,0.294643315,0.320665374,10.38011433,10.38011433,0.557839417,0.854788885,34.28905188,34.00320929,16.79419094,25,23,95,107,3.559496032,3
923.0078122,9.962440366,10.19514256,15.20665924,14.82087782,0.293782973,0.323765853,10.39979814,10.39979814,0.557337921,0.853809657,34.28672906,34.00198556,16.79419094,25,23,95,107,3.559496032,3
924.0078122,9.957322826,10.19291371,15.18070741,14.78452267,0.292514664,0.321159195,10.40337611,10.40337611,0.556847949,0.852732212,34.28434291,34.00076272,16.79419094,25,23,95,107,3.559496032,3
925.0078122,9.953468202,10.18561106,15.05769211,14.77211847,0.290651234,0.314090182,10.40358012,10.40358012,0.556307722,0.851489143,34.28202302,33.9993682,16.77615225,25,23,96,107,3.559496032,3
926.0078122,9.951960945,10.17869018,14.92400821,14.77213133,0.288194439,0.305685518,10.41181586,10.41181586,0.55576511,0.850242303,34.27964483,33.99804779,16.77615225,25,23,96,107,3.559496032,3
927.0078122,9.951495068,10.17752644,14.83708101,14.78237765,0.285470905,0.298895809,10.42562322,10.42562322,0.555251425,0.849074935,34.27733781,33.99671218,16.77615225,25,23,96,107,3.559496032,3
928.0078122,9.951174039,10.18079409,14.79136496,14.79808,0.283006286,0.295129037,10.42691828,10.42691828,0.55478827,0.847940519,34.27498816,33.99519675,16.77781119,25,23,96,106,3.559496032,3
929.0078122,9.949937889,10.184133,14.75130897,14.80741763,0.281384146,0.294076717,10.40553527,10.40553527,0.554388842,0.846944003,34.2726972,33.99369687,16.77781119,25,23,96,106,3.559496032,3
930.0078122,9.947017235,10.18685534,14.70150263,14.80412258,0.281122204,0.294477069,10.3776235,10.3776235,0.554012835,0.846019315,34.27033355,33.99217747,16.77781119,25,23,96,106,3.559496032,3
931.0078122,9.943844003,10.1895964,14.66195284,14.8001327,0.282389685,0.295099249,10.36910059,10.36910059,0.55365042,0.845144516,34.26799818,33.99062321,16.79848472,25,23,96,106,3.559496032,3
932.0078122,9.942595362,10.19022053,14.66052075,14.81530839,0.284687479,0.295430624,10.38925676,10.38925676,0.553299005,0.844247688,34.26580704,33.98909004,16.79848472,25,23,96,106,3.559496032,3
933.0078122,9.943322955,10.18770883,14.7005631,14.84903012,0.286883381,0.295745467,10.42638757,10.42638757,0.552934867,0.843304688,34.2635554,33.98756047,16.83684184,25,23,96,106,3.559496032,3
934.0078122,9.943930767,10.18629315,14.75737445,14.8743464,0.287784183,0.296570538,10.45980378,10.45980378,0.552590939,0.842338231,34.2612337,33.98592726,16.83684184,25,23,96,106,3.559496032,3
935.0078122,9.942229431,10.19059795,14.79715709,14.8716027,0.286846832,0.297991332,10.46713326,10.46713326,0.552275069,0.841366513,34.2589767,33.98406049,16.8910038,25,23,96,106,3.559496032,3
936.0078122,9.93790719,10.19804669,14.79575033,14.85389607,0.284416435,0.299420067,10.42612271,10.42612271,0.551960695,0.840402479,34.25679841,33.98226138,16.8910038,25,23,96,106,3.559496032,3
937.0078122,9.933322452,10.20183058,14.75893942,14.84255475,0.281400753,0.300074027,10.33597988,10.33597988,0.55166042,0.839403927,34.25465885,33.98040228,16.8910038,25,23,96,106,3.559496032,3
938.0078122,9.931743192,10.20152694,14.72506478,14.83399463,0.278825936,0.299719804,10.23960424,10.23960424,0.551370122,0.838383045,34.25252962,33.97842141,16.95862141,25,24,96,106,3.559496032,3
939.0078122,9.934147187,10.20321719,14.72603215,14.80752911,0.277567223,0.298907502,10.18858579,10.18858579,0.551082652,0.837333661,34.25028645,33.9764537,16.95862141,25,24,96,106,3.559496032,3
940.0078122,9.938550239,10.20897928,14.75705915,14.75156236,0.278163125,0.298398753,10.19220237,10.19220237,0.550808311,0.836286736,34.24808021,33.97447218,17.03693172,25,24,96,105,3.559496032,3
941.0078122,9.942344988,10.21376588,14.78698704,14.6826774,0.280657711,0.298381383,10.23449805,10.23449805,0.550540705,0.835232101,34.24587016,33.97231528,17.03693172,25,24,96,105,3.559496032,3
942.0078122,9.944312763,10.21250806,14.78384696,14.64471726,0.284572661,0.298333516,10.30944265,10.30944265,0.550263421,0.834144127,34.2436301,33.97011213,17.03693172,25,24,96,105,3.559496032,3
943.0078122,9.944278294,10.20598392,14.74098793,14.66808993,0.289050841,0.297610686,10.40416539,10.40416539,0.549992543,0.833021599,34.24146329,33.96789278,17.1228051,25,24,96,105,3.559496032,3
944.0078122,9.942869651,10.20073451,14.6850483,14.73683905,0.29307311,0.296039266,10.48011875,10.48011875,0.549726698,0.831871549,34.23932415,33.96560974,17.1228051,25,24,96,105,3.559496032,3
945.0078122,9.941655932,10.20240843,14.65173485,14.81261269,0.295745124,0.293982325,10.49985615,10.49985615,0.54945676,0.830689378,34.23718466,33.96330702,17.1228051,25,24,96,105,3.559496032,3
946.0078122,9.941392051,10.20783511,14.65008122,14.86781892,0.296690201,0.292094537,10.46138803,10.46138803,0.549192007,0.829492902,34.23495435,33.96077463,17.21279854,25,24,96,105,3.559496032,3
947.0078122,9.9415599,10.20772494,14.6538199,14.89425012,0.296325932,0.291142728,10.39469755,10.39469755,0.548915473,0.828245531,34.2327627,33.95812173,17.21279854,25,24,96,105,3.559496032,3
948.0078122,9.942321133,10.19838139,14.64102875,14.90161812,0.295608721,0.291827234,10.33183177,10.33183177,0.54867501,0.826949429,34.23050486,33.95561004,17.30323107,25,24,96,105,3.559496032,3
949.0078122,9.94465825,10.18669295,14.63205762,14.90418632,0.295226741,0.294388696,10.29219701,10.29219701,0.548436779,0.825643038,34.22825168,33.95295412,17.30323107,25,24,96,105,3.559496032,3
950.0078122,9.9485748,10.18286306,14.66631407,14.89970971,0.294941736,0.298201415,10.28641073,10.28641073,0.548185546,0.824312828,34.22600448,33.95016054,17.39029331,25,24,96,105,3.559496032,3
951.0078122,9.952692438,10.19084899,14.74872619,14.8735162,0.293807553,0.301868169,10.31102042,10.31102042,0.547894043,0.82291455,34.22378646,33.9472558,17.39029331,25,24,96,105,3.559496032,3
952.0078122,9.955661146,10.20489958,14.83436747,14.82703074,0.291071205,0.303986869,10.34729567,10.34729567,0.547606196,0.821482404,34.22163645,33.94434265,17.39029331,25,24,96,105,3.559496032,3
953.0078122,9.957042719,10.2149323,14.87100961,14.77455883,0.286866482,0.304049826,10.38018079,10.38018079,0.547326142,0.820111754,34.21948721,33.94142961,17.47019523,25,24,96,105,3.559496032,3
954.0078122,9.957075546,10.21616046,14.85120665,14.72232041,0.282166544,0.30266063,10.40488655,10.40488655,0.547065557,0.818800756,34.21731829,33.93855558,17.47019523,25,24,96,105,3.559496032,3
955.0078122,9.955990289,10.21214861,14.81503369,14.67723427,0.278304358,0.300879003,10.41646352,10.41646352,0.546788551,0.817462047,34.21514982,33.93555951,17.53934748,25,24,96,106,3.559496032,3
956.0078122,9.953978989,10.20910982,14.79983512,14.6522167,0.276369013,0.29939653,10.41096377,10.41096377,0.546484144,0.816066871,34.21306564,33.93243351,17.53934748,25,24,96,106,3.559496032,3
957.0078122,9.952200508,10.20929777,14.80318181,14.65738665,0.276742568,0.298314324,10.39333913,10.39333913,0.546194737,0.814691316,34.21100328,33.92914788,17.59456292,25,25,96,106,3.559496032,3
958.0078122,9.951931972,10.21066365,14.80512364,14.69482702,0.278930925,0.297483158,10.37585194,10.37585194,0.545898521,0.813349351,34.20889989,33.92595736,17.59456292,25,25,96,106,3.559496032,3
959.0078122,9.952687578,10.21096412,14.79558464,14.74552125,0.281833437,0.296829342,10.36807433,10.36807433,0.545607183,0.812037131,34.206761,33.92274358,17.63325838,26,25,96,106,3.559496032,3
960.0078122,9.953097293,10.20986,14.76918954,14.76955071,0.284302492,0.296401631,10.36876804,10.36876804,0.545326882,0.810747571,34.20468706,33.91947251,17.63325838,26,25,96,106,3.559496032,3
961.0078122,9.953223151,10.20795635,14.72229388,14.74051655,0.285620305,0.296300487,10.37076335,10.37076335,0.545044659,0.809468669,34.2024969,33.91615597,17.65363376,26,25,96,106,3.559496032,3
962.0078122,9.954525187,10.20492342,14.66546942,14.6752758,0.285658056,0.296631626,10.37133229,10.37133229,0.544746763,0.808188025,34.20037278,33.91277178,17.65363376,26,25,96,106,3.559496032,3
963.0078122,9.957389543,10.20014625,14.62445873,14.61668905,0.284753104,0.297431242,10.37124381,10.37124381,0.544447327,0.806906611,34.19836242,33.90938544,17.65363376,26,25,96,106,3.559496032,3
964.0078122,9.960001428,10.19611676,14.61653456,14.59166153,0.283449303,0.298507084,10.36835631,10.36835631,0.544148219,0.805620866,34.19631111,33.9059199,17.65480703,26,25,96,106,3.559496032,3
965.0078122,9.960642308,10.19777565,14.63318076,14.59597196,0.282242821,0.299331052,10.36111669,10.36111669,0.543858456,0.8043154,34.19425986,33.90239817,17.65480703,26,25,96,106,3.559496032,3
966.0078122,9.959561452,10.20679232,14.65229009,14.61021925,0.281458355,0.299214272,10.35598065,10.35598065,0.543563975,0.803002935,34.19226281,33.89876429,17.63688828,26,25,96,107,3.559496032,3
967.0078122,9.957529897,10.21913457,14.65506831,14.61888864,0.28126384,0.297753692,10.36273005,10.36273005,0.543261702,0.801724472,34.19023469,33.89517252,17.63688828,26,25,96,107,3.559496032,3
968.0078122,9.954688745,10.22819507,14.6271698,14.61872498,0.28168965,0.295213282,10.37978088,10.37978088,0.542962552,0.800447513,34.18821633,33.89148624,17.60098359,26,25,96,107,3.559496032,3
969.0078122,9.951658494,10.22847303,14.56430917,14.6165234,0.282558559,0.292491723,10.39083934,10.39083934,0.542671461,0.799188037,34.18626167,33.88770952,17.60098359,26,25,96,107,3.559496032,3
970.0078122,9.950121143,10.21999492,14.49043294,14.61965609,0.283513638,0.290640574,10.38050787,10.38050787,0.542385735,0.797955094,34.18428526,33.88383099,17.54912842,26,25,96,107,3.559496032,3
971.0078122,9.950879556,10.21048891,14.45107285,14.63357477,0.284277817,0.290248534,10.34790784,10.34790784,0.542101528,0.79683852,34.18228197,33.87990942,17.54912842,26,25,96,107,3.559496032,3
972.0078122,9.952724785,10.20704082,14.46962028,14.670082,0.284889032,0.291154157,10.3062924,10.3062924,0.541787766,0.795797829,34.18029717,33.8758938,17.54912842,26,25,96,107,3.559496032,3
973.0078122,9.954435238,10.20768614,14.5228135,14.73805535,0.285531492,0.29270992,10.27534115,10.27534115,0.541456318,0.794813753,34.17833305,33.87181634,17.48415761,26,25,96,107,3.559496032,3
