Time (s),Waist Acceleration,Chest Acceleration,Left Ankle Acceleration,right Ankle Acceleration,EMG_magnitude_left,EMG_magnitude_right,left wrist Acceleration,right wrist Acceleration,left wrist electrodermal,right wrist electrodermal,left wrist Temperature,right wrist Temperature,VO2,Breath Frequency,Minute Ventilation,SpO2,Heart Rate,Energy expenditures (W/kg) ,Activity Code
360.0078122,9.941752661,9.989059034,11.45334125,11.52863809,0.338596337,0.289877993,9.848033436,9.848033436,0.309932557,0.381506483,33.11678263,32.66902169,7.63568375,21,12,99,96,2.639605855,2
361.0078122,9.945718456,10.00887848,11.76059322,11.78558105,0.356228304,0.302934554,9.849173906,9.849173906,0.309911712,0.381438988,33.10425285,32.66853059,7.63568375,21,12,99,96,2.639605855,2
362.0078122,9.946424894,10.02082911,11.98546044,11.94080803,0.364904127,0.311583395,9.851648371,9.851648371,0.30988936,0.38136814,33.09184914,32.6680097,7.780784501,21,12,99,97,2.639605855,2
363.0078122,9.946290973,10.02683848,12.10090223,12.02695872,0.365548287,0.316818917,9.854022367,9.854022367,0.309872879,0.381295494,33.07979796,32.6674623,7.780784501,21,12,99,97,2.639605855,2
364.0078122,9.946573708,10.03101446,12.11438961,12.06591162,0.360290118,0.318940264,9.853892616,9.853892616,0.309855624,0.381219044,33.06784673,32.6670273,8.058119806,21,13,99,97,2.639605855,2
365.0078122,9.946500161,10.03524069,12.06233762,12.08143357,0.351624431,0.317903027,9.84932363,9.84932363,0.30984075,0.381141898,33.05601435,32.66660153,8.058119806,21,13,99,97,2.639605855,2
366.0078122,9.9455191,10.03849129,11.98603456,12.09826347,0.341923552,0.314099574,9.84081562,9.84081562,0.309824482,0.381059655,33.04443585,32.66618618,8.058119806,21,13,99,97,2.639605855,2
367.0078122,9.944699297,10.03934998,11.92319709,12.11220116,0.333493391,0.308884259,9.832805716,9.832805716,0.309807846,0.380974328,33.03303431,32.66578232,8.443945239,21,13,99,98,2.639605855,2
368.0078122,9.945028639,10.03895733,11.90074918,12.11147572,0.32837551,0.304167664,9.829845669,9.829845669,0.309787012,0.380887002,33.02192443,32.6653353,8.443945239,21,13,99,98,2.639605855,2
369.0078122,9.945557007,10.04096516,11.91990228,12.11734188,0.32748999,0.301244474,9.831070084,9.831070084,0.309767806,0.380799133,33.01099972,32.66484135,8.443945239,21,13,99,98,2.639605855,2
370.0078122,9.94488716,10.04831402,11.96825679,12.16445031,0.329925385,0.299918145,9.832052251,9.832052251,0.309750734,0.380714042,33.0002717,32.66453144,8.907240572,21,13,99,99,2.639605855,2
371.0078122,9.943692787,10.05937426,12.03907836,12.24194375,0.333451156,0.298894564,9.83142478,9.83142478,0.309734595,0.380624924,32.9897535,32.6642887,8.907240572,21,13,99,99,2.639605855,2
372.0078122,9.943805657,10.06785963,12.10851486,12.28495969,0.336109437,0.297184593,9.831976008,9.831976008,0.309714034,0.380540264,32.97932391,32.66409343,8.907240572,21,13,99,99,2.639605855,2
373.0078122,9.945434732,10.06876815,12.13151214,12.25343354,0.337346371,0.295133446,9.835646069,9.835646069,0.309691894,0.380456147,32.96906734,32.66391684,9.414260539,21,14,99,100,2.639605855,2
374.0078122,9.946874605,10.06297783,12.09736551,12.1811776,0.33768234,0.293988833,9.84197967,9.84197967,0.3096739,0.380372136,32.95910924,32.66371332,9.414260539,21,14,99,100,2.639605855,2
375.0078122,9.946938205,10.05421182,12.04057032,12.11487386,0.337540609,0.294447878,9.850858101,9.850858101,0.309653901,0.38028685,32.94941131,32.66361968,9.933210504,21,14,99,101,2.639605855,2
376.0078122,9.94654347,10.0447993,11.98884992,12.06777897,0.336760587,0.295680171,9.861317715,9.861317715,0.309637672,0.380206186,32.93993212,32.66344195,9.933210504,21,14,99,101,2.639605855,2
377.0078122,9.947132914,10.03607514,11.94158528,12.04835443,0.335190532,0.295906938,9.868742278,9.868742278,0.309627339,0.380122095,32.93066897,32.66330974,9.933210504,21,14,99,101,2.639605855,2
378.0078122,9.948539981,10.0293012,11.89179123,12.06002385,0.333412521,0.294071031,9.868942254,9.868942254,0.309617323,0.380040473,32.92157877,32.66324406,10.43821967,21,15,99,102,2.639605855,2
379.0078122,9.949409947,10.02481115,11.84661554,12.06968555,0.33270073,0.290934358,9.864168785,9.864168785,0.309612604,0.379958012,32.91267515,32.66308777,10.43821967,21,15,99,102,2.639605855,2
380.0078122,9.948718485,10.02273552,11.82180449,12.03903151,0.334224194,0.288445653,9.859279206,9.859279206,0.3096102,0.379869839,32.90401848,32.66299864,10.43821967,21,15,99,102,2.639605855,2
381.0078122,9.946647286,10.02414852,11.82501385,11.98181354,0.338114639,0.288033022,9.854859176,9.854859176,0.30961165,0.379785067,32.89558195,32.6629385,10.91192478,21,15,99,102,2.639605855,2
382.0078122,9.944986581,10.02927877,11.84903164,11.94864698,0.343115997,0.289533954,9.849827943,9.849827943,0.309612353,0.379704031,32.88731689,32.66292342,10.91192478,21,15,99,102,2.639605855,2
383.0078122,9.945773889,10.03672207,11.88270158,11.97229304,0.347179872,0.291613099,9.844533232,9.844533232,0.309620706,0.379619624,32.87928712,32.66297356,10.91192478,21,15,99,102,2.639605855,2
384.0078122,9.948830002,10.04520532,11.92259514,12.03979175,0.348610593,0.292939462,9.838519671,9.838519671,0.309626046,0.379540499,32.87145796,32.66293099,10.91192478,21,15,99,102,2.639605855,2
385.0078122,9.951791744,10.05274118,11.95508606,12.10197148,0.34687169,0.292911069,9.83115138,9.83115138,0.309635484,0.379464813,32.86383312,32.6629527,11.34624031,21,16,99,103,2.639605855,2
386.0078122,9.952380469,10.0561414,11.95829353,12.12113359,0.342576054,0.291554066,9.823573101,9.823573101,0.309650439,0.379389675,32.85639665,32.66304551,11.34624031,21,16,99,103,2.639605855,2
387.0078122,9.950288689,10.05497992,11.93856897,12.1031433,0.337017609,0.289263566,9.817357383,9.817357383,0.309673563,0.37931241,32.84921759,32.66318746,11.74124626,21,16,99,103,2.639605855,2
388.0078122,9.947309481,10.05276336,11.91627955,12.0723446,0.331668691,0.286878958,9.813227687,9.813227687,0.309702344,0.379235749,32.84227322,32.66346184,11.74124626,21,16,99,103,2.639605855,2
389.0078122,9.945148224,10.05211975,11.89538015,12.04129412,0.327701884,0.285653788,9.811264744,9.811264744,0.309732289,0.379164114,32.83551653,32.66372746,11.74124626,21,16,99,103,2.639605855,2
390.0078122,9.943839598,10.05220177,11.88642432,12.01107115,0.325570154,0.286520338,9.810806524,9.810806524,0.309765162,0.379091986,32.82891302,32.66401452,12.10252124,21,16,99,104,2.639605855,2
391.0078122,9.943261071,10.05143531,11.90963566,11.98318844,0.325026792,0.289194694,9.812108354,9.812108354,0.309809946,0.379020627,32.82250606,32.66431786,12.10252124,21,16,99,104,2.639605855,2
392.0078122,9.944001983,10.05029796,11.95774366,11.96655075,0.325667945,0.292235509,9.81800835,9.81800835,0.309856318,0.378948879,32.8163696,32.66461534,12.10252124,21,16,99,104,2.639605855,2
393.0078122,9.945809561,10.05038361,12.00522573,11.96730296,0.327316967,0.294063539,9.830126331,9.830126331,0.309909344,0.378877961,32.81040861,32.66486916,12.43760627,21,17,99,104,2.639605855,2
394.0078122,9.94733522,10.05112395,12.04329378,11.9809274,0.329681955,0.293856886,9.844901991,9.844901991,0.309967737,0.378810849,32.80469798,32.66516941,12.43760627,21,17,99,104,2.639605855,2
395.0078122,9.947789281,10.05080049,12.07062422,12.0112752,0.331775752,0.291707417,9.857790741,9.857790741,0.310028346,0.378743465,32.79907619,32.66550633,12.75250251,21,17,99,103,2.639605855,2
396.0078122,9.947762691,10.04996914,12.07260755,12.0635711,0.332045416,0.288371836,9.870081777,9.870081777,0.310096997,0.378675762,32.7936282,32.66580132,12.75250251,21,17,99,103,2.639605855,2
397.0078122,9.948364175,10.04923158,12.04063024,12.10931491,0.329310765,0.284919525,9.887028332,9.887028332,0.310170468,0.378612247,32.78836637,32.66614153,12.75250251,21,17,99,103,2.639605855,2
398.0078122,9.949862506,10.04718515,11.99749161,12.10720067,0.323642521,0.282207013,9.9095604,9.9095604,0.310248764,0.3785514,32.783126,32.66651176,13.04909877,21,17,99,103,2.639605855,2
399.0078122,9.951575537,10.04331073,11.96818528,12.05528784,0.316521312,0.280504089,9.932133656,9.932133656,0.310332436,0.378494225,32.77813494,32.66681768,13.04909877,21,17,99,103,2.639605855,2
400.0078122,9.952737535,10.03874141,11.94419244,11.9898187,0.31021374,0.279613923,9.948136693,9.948136693,0.31042251,0.378436768,32.7732948,32.6672096,13.04909877,21,17,99,103,2.639605855,2
401.0078122,9.952943486,10.03451779,11.91795814,11.95023382,0.306759749,0.279261551,9.954989122,9.954989122,0.310517545,0.378378717,32.76859911,32.66761442,13.3241642,21,18,99,103,2.639605855,2
402.0078122,9.952237081,10.03243279,11.92113899,11.96219006,0.307042811,0.279176274,9.955624747,9.955624747,0.310620453,0.378318681,32.76399738,32.6679771,13.3241642,21,18,99,103,2.639605855,2
403.0078122,9.950958987,10.03456228,11.97763306,12.02380337,0.31046244,0.279086757,9.953353993,9.953353993,0.310729559,0.378268093,32.75942113,32.66833393,13.57008794,21,18,99,103,2.639605855,2
404.0078122,9.94960093,10.03927065,12.04660593,12.0968064,0.315374474,0.279100145,9.947511187,9.947511187,0.31084655,0.378214174,32.75489456,32.66873438,13.57008794,21,18,99,103,2.639605855,2
405.0078122,9.948433968,10.0428066,12.07368288,12.13957759,0.319879808,0.279981448,9.938952451,9.938952451,0.310970694,0.378162287,32.75053432,32.66913428,13.57008794,21,18,99,103,2.639605855,2
406.0078122,9.947043605,10.04542402,12.06792134,12.14421686,0.322446608,0.282449624,9.931067902,9.931067902,0.311091445,0.378110019,32.74619022,32.6695435,13.77703453,21,18,99,102,2.639605855,2
407.0078122,9.944993039,10.04964948,12.0643838,12.13169552,0.322266033,0.285897778,9.924025542,9.924025542,0.311217179,0.37805965,32.74184682,32.67003735,13.77703453,21,18,99,102,2.639605855,2
408.0078122,9.942626536,10.05417591,12.06532827,12.1261032,0.319432846,0.288154286,9.916587856,9.916587856,0.311341071,0.378010016,32.73768827,32.67046001,13.77703453,21,18,99,102,2.639605855,2
409.0078122,9.940878917,10.05475096,12.06552463,12.13193112,0.31485813,0.286988277,9.908702152,9.908702152,0.311468458,0.377960925,32.733599,32.67081781,13.93577961,21,19,99,102,2.639605855,2
410.0078122,9.940781048,10.04960942,12.06958507,12.13851473,0.30979542,0.282008355,9.899319615,9.899319615,0.311600792,0.377909532,32.7294614,32.67123277,13.93577961,21,19,99,102,2.639605855,2
411.0078122,9.942588533,10.0412712,12.06560821,12.14010918,0.305164845,0.275109971,9.887765406,9.887765406,0.311735944,0.377860565,32.72536085,32.67160788,13.93577961,21,19,99,102,2.639605855,2
412.0078122,9.945219006,10.03398693,12.03686595,12.13815583,0.30112313,0.269187339,9.875980801,9.875980801,0.311867998,0.377814002,32.72130685,32.67204572,14.04033363,21,19,99,102,2.639605855,2
413.0078122,9.947304582,10.03132457,12.00131046,12.13223829,0.297368829,0.266539566,9.86435968,9.86435968,0.312000517,0.377769608,32.7172981,32.67248952,14.04033363,21,19,99,102,2.639605855,2
414.0078122,9.948305051,10.03417887,11.99386736,12.10929994,0.293970634,0.268010748,9.849585052,9.849585052,0.312128318,0.377732381,32.71337638,32.67293141,14.04033363,21,19,99,102,2.639605855,2
415.0078122,9.948189221,10.03952322,12.01580608,12.0598445,0.292004273,0.273144368,9.832451485,9.832451485,0.312261583,0.377697982,32.70950459,32.67342613,14.08961,21,19,99,101,2.639605855,2
416.0078122,9.947075118,10.04358886,12.03887935,12.01328026,0.293185938,0.280839987,9.821956219,9.821956219,0.312397907,0.377658424,32.70571953,32.67382581,14.08961,21,19,99,101,2.639605855,2
417.0078122,9.945350458,10.04599146,12.04480752,12.01329362,0.298600396,0.289916486,9.825787414,9.825787414,0.312526777,0.377626504,32.70201125,32.674225,14.08779028,21,19,99,101,2.639605855,2
418.0078122,9.943604516,10.04802566,12.03576937,12.0559289,0.307490537,0.299163881,9.841467659,9.841467659,0.312655433,0.377599444,32.69828179,32.6746184,14.08779028,21,19,99,101,2.639605855,2
419.0078122,9.942418891,10.04825358,12.02106638,12.09771988,0.317114073,0.307021219,9.86085792,9.86085792,0.312781144,0.37756999,32.69457508,32.67505242,14.08779028,21,19,99,101,2.639605855,2
420.0078122,9.942114258,10.04449388,12.0155282,12.12183522,0.323944502,0.311527759,9.880352828,9.880352828,0.312905319,0.377545151,32.69087242,32.67552383,14.04352516,21,19,99,100,2.639605855,2
421.0078122,9.942860936,10.03937455,12.03817329,12.14977782,0.325527378,0.311008846,9.901418088,9.901418088,0.313033764,0.377520881,32.687305,32.67601763,14.04352516,21,19,99,100,2.639605855,2
422.0078122,9.944901337,10.03790797,12.08038311,12.18586335,0.321720829,0.305193915,9.921031418,9.921031418,0.313159061,0.377497016,32.68386518,32.6765292,14.04352516,21,19,99,100,2.639605855,2
423.0078122,9.948208529,10.04072985,12.09932982,12.20088144,0.314447281,0.295854928,9.929594379,9.929594379,0.313278493,0.377479061,32.68047057,32.67708246,13.96848214,20,19,99,100,2.639605855,2
424.0078122,9.951970765,10.04430859,12.07415589,12.17250335,0.306347508,0.286192536,9.922162011,9.922162011,0.31339737,0.377459095,32.67714661,32.67764873,13.96848214,20,19,99,100,2.639605855,2
425.0078122,9.954884193,10.04584055,12.03423377,12.10619975,0.299552243,0.27907955,9.904542048,9.904542048,0.313508334,0.377442485,32.67384268,32.67827482,13.87585143,20,19,99,99,2.639605855,2
426.0078122,9.956122576,10.04510578,12.01893887,12.03328347,0.295390984,0.275522937,9.886969584,9.886969584,0.313614533,0.377429132,32.67047656,32.67897015,13.87585143,20,19,99,99,2.639605855,2
427.0078122,9.955490307,10.04318909,12.03839001,11.99562818,0.294352671,0.274357841,9.876684499,9.876684499,0.313719811,0.377415974,32.66713652,32.67964776,13.87585143,20,19,99,99,2.639605855,2
428.0078122,9.952980021,10.04133438,12.07759104,12.00808642,0.295845363,0.273393464,9.873224709,9.873224709,0.313819888,0.377405015,32.66377876,32.68019765,13.77922106,20,19,99,99,2.639605855,2
429.0078122,9.949267454,10.0402004,12.1178216,12.0505703,0.298128432,0.270934429,9.870223927,9.870223927,0.313922303,0.377399274,32.66041853,32.68081045,13.77922106,20,19,99,99,2.639605855,2
430.0078122,9.946042778,10.03953761,12.14177182,12.09779283,0.299109898,0.266676249,9.864883871,9.864883871,0.314025638,0.377390687,32.65713701,32.68150072,13.77922106,20,19,99,99,2.639605855,2
431.0078122,9.944566579,10.03871565,12.13665931,12.13014706,0.297659486,0.261628444,9.860704685,9.860704685,0.31412018,0.377381829,32.65393365,32.68210786,13.77922106,20,19,99,99,2.639605855,2
432.0078122,9.944400066,10.03760336,12.10870093,12.13777898,0.294286604,0.257296881,9.860914891,9.860914891,0.314213009,0.377379975,32.65083173,32.68267513,13.69185579,20,18,99,98,2.639605855,2
433.0078122,9.944469559,10.03729435,12.07564628,12.12957325,0.290608107,0.254733076,9.866105996,9.866105996,0.314305676,0.37737417,32.64777452,32.68321082,13.69185579,20,18,99,98,2.639605855,2
434.0078122,9.944561833,10.03886769,12.04010756,12.11208255,0.288214681,0.254124872,9.875624751,9.875624751,0.314392519,0.377378331,32.64470945,32.6837925,13.69185579,20,18,99,98,2.639605855,2
435.0078122,9.944921827,10.04104452,11.99258284,12.07860224,0.287934088,0.255095928,9.88534042,9.88534042,0.31447652,0.377382669,32.64162024,32.68437979,13.69185579,20,18,99,98,2.639605855,2
436.0078122,9.945487964,10.04130972,11.93747137,12.04061193,0.289821963,0.25719496,9.887839571,9.887839571,0.314556145,0.377384,32.6385233,32.68507367,13.62608245,20,18,99,98,2.639605855,2
437.0078122,9.946177127,10.0387503,11.8947786,12.02547029,0.293427793,0.259990214,9.880699195,9.880699195,0.314629542,0.377378989,32.63547924,32.68582323,13.62608245,20,18,99,98,2.639605855,2
438.0078122,9.94685206,10.03445062,11.87923124,12.03779687,0.297901843,0.26285802,9.87170743,9.87170743,0.314699793,0.377380518,32.63238391,32.68654222,13.62608245,20,18,99,98,2.639605855,2
439.0078122,9.94713946,10.03056412,11.88588408,12.05894244,0.302024154,0.265027155,9.871712215,9.871712215,0.314756728,0.377384288,32.62928505,32.68733552,13.62608245,20,18,99,98,2.639605855,2
440.0078122,9.947170648,10.02901589,11.89751794,12.07023972,0.30466319,0.266187117,9.884678332,9.884678332,0.314808572,0.377389158,32.62621371,32.68811032,13.59239309,20,18,99,98,2.639605855,2
441.0078122,9.947730707,10.03026802,11.9084423,12.06395787,0.305509526,0.267006499,9.903513448,9.903513448,0.314851972,0.377393605,32.62309873,32.68884959,13.59239309,20,18,99,98,2.639605855,2
442.0078122,9.949115161,10.0331805,11.92781313,12.04796932,0.305371069,0.268814925,9.913473647,9.913473647,0.314894296,0.377396511,32.62003562,32.68956748,13.59239309,20,18,99,98,2.639605855,2
443.0078122,9.950701745,10.03631853,11.95864211,12.03770789,0.305621924,0.272518765,9.907689051,9.907689051,0.314934002,0.377396478,32.61703362,32.69023323,13.59808483,19,18,99,97,2.639605855,2
444.0078122,9.95180096,10.03926666,11.99778594,12.03918643,0.307307216,0.277607103,9.898163694,9.898163694,0.314966868,0.377397531,32.6140093,32.69095855,13.59808483,19,18,99,97,2.639605855,2
445.0078122,9.952205337,10.04245869,12.04331774,12.05511399,0.310573257,0.282127921,9.899756628,9.899756628,0.314997575,0.377398184,32.61091447,32.69157312,13.59808483,19,18,99,97,2.639605855,2
446.0078122,9.951692614,10.0464256,12.08250856,12.09312947,0.314531556,0.283925719,9.909671293,9.909671293,0.315023386,0.377399495,32.60791592,32.69210112,13.64564597,19,18,99,97,2.639605855,2
447.0078122,9.949916947,10.05027745,12.0911548,12.13913311,0.317518684,0.282373482,9.915184752,9.915184752,0.315041928,0.37740172,32.60481265,32.69260829,13.64564597,19,18,99,97,2.639605855,2
448.0078122,9.947594854,10.05099369,12.0542923,12.15710883,0.317925883,0.278960467,9.912042959,9.912042959,0.315065046,0.377403061,32.60179745,32.69305803,13.73144626,19,18,99,97,2.639605855,2
449.0078122,9.946670421,10.04694915,11.99430435,12.1397249,0.315340886,0.275883769,9.903564317,9.903564317,0.315084007,0.377396134,32.59883294,32.69342338,13.73144626,19,18,99,97,2.639605855,2
450.0078122,9.948213907,10.04095695,11.96048795,12.11096382,0.310992747,0.274033231,9.893144853,9.893144853,0.315099548,0.377392387,32.59593511,32.69392867,13.73144626,19,18,99,97,2.639605855,2
451.0078122,9.951036786,10.03747207,11.97539243,12.08568534,0.30676263,0.27261108,9.886680366,9.886680366,0.315110887,0.377388837,32.59295278,32.69447886,13.84539035,19,18,99,97,2.639605855,2
452.0078122,9.95288299,10.03820744,12.02403303,12.07347227,0.303589501,0.270652451,9.891032988,9.891032988,0.315117667,0.377382737,32.58987414,32.69500779,13.84539035,19,18,99,97,2.639605855,2
453.0078122,9.952351871,10.04186098,12.08085049,12.08658876,0.300809644,0.268384457,9.905772773,9.905772773,0.315122795,0.377373641,32.5867885,32.69551426,13.84539035,19,18,99,97,2.639605855,2
454.0078122,9.949799292,10.04630396,12.11951304,12.11148229,0.297115788,0.266870167,9.923711033,9.923711033,0.31512972,0.377359578,32.58365329,32.69599739,13.97196968,18,18,99,97,2.639605855,2
455.0078122,9.946675134,10.0489925,12.12786021,12.11617741,0.291977211,0.266635652,9.937720005,9.937720005,0.315132229,0.377343779,32.58048521,32.6964785,13.97196968,18,18,99,97,2.639605855,2
456.0078122,9.943892362,10.04762979,12.11645429,12.09729144,0.286113848,0.267056843,9.942720064,9.942720064,0.315130277,0.377328769,32.57732129,32.69699483,13.97196968,18,18,99,97,2.639605855,2
457.0078122,9.941372989,10.04257534,12.09474444,12.07911749,0.280900769,0.267119329,9.936889506,9.936889506,0.315129911,0.377311726,32.57414342,32.69745592,14.09269075,18,18,99,97,2.639605855,2
458.0078122,9.939221283,10.03671584,12.06552656,12.07555473,0.277564931,0.266534107,9.925856491,9.925856491,0.31512383,0.377290212,32.57101309,32.6978257,14.09269075,18,18,99,97,2.639605855,2
459.0078122,9.9378973,10.03244922,12.04527246,12.0859798,0.276756925,0.265978467,9.919570694,9.919570694,0.315120056,0.377268268,32.56783734,32.69819635,14.09269075,18,18,99,97,2.639605855,2
460.0078122,9.937120074,10.02999195,12.05155498,12.10886801,0.278413449,0.266377333,9.924019627,9.924019627,0.315117554,0.377247451,32.56460848,32.69858442,14.18936695,17,18,99,97,2.639605855,2
461.0078122,9.936435069,10.02862585,12.07887869,12.13428285,0.281775834,0.268086926,9.940603042,9.940603042,0.315107752,0.377220352,32.56132137,32.69888501,14.18936695,17,18,99,97,2.639605855,2
462.0078122,9.936378683,10.02846212,12.11249444,12.14318253,0.285740637,0.270638077,9.96481108,9.96481108,0.315095552,0.377195173,32.55807812,32.69919106,14.18936695,17,18,99,97,2.639605855,2
463.0078122,9.937207113,10.03027276,12.14920748,12.13651932,0.289552201,0.273020362,9.981721901,9.981721901,0.31508103,0.377167977,32.55486252,32.69945115,14.2474477,16,18,99,97,2.639605855,2
464.0078122,9.938020589,10.03444923,12.18887129,12.13505292,0.29331664,0.274277933,9.977220187,9.977220187,0.315066271,0.377136331,32.55161404,32.69954836,14.2474477,16,18,99,97,2.639605855,2
465.0078122,9.938822096,10.04008627,12.21353113,12.13679184,0.297723931,0.274141761,9.956510446,9.956510446,0.315050285,0.377104075,32.54834862,32.69961743,14.2474477,16,18,99,97,2.639605855,2
466.0078122,9.940774122,10.04493865,12.19534992,12.12869284,0.303248702,0.273308899,9.93897228,9.93897228,0.315038426,0.377070018,32.54497673,32.69965887,14.2474477,16,18,99,97,2.639605855,2
467.0078122,9.943235895,10.04715075,12.13287425,12.12458356,0.309551222,0.272943022,9.93425169,9.93425169,0.315028237,0.37703692,32.54162886,32.69970904,14.25854464,16,18,99,97,2.639605855,2
468.0078122,9.944078009,10.04604175,12.05982488,12.13383243,0.315571436,0.273726122,9.931373749,9.931373749,0.315019762,0.377002326,32.53820123,32.69971102,14.25854464,16,18,99,97,2.639605855,2
469.0078122,9.943374583,10.04078618,12.01007326,12.14087819,0.320020681,0.275347361,9.913000391,9.913000391,0.315006789,0.376970786,32.53478774,32.69983293,14.25854464,16,18,99,97,2.639605855,2
470.0078122,9.943069319,10.03155162,11.98738221,12.14146478,0.321736818,0.276867901,9.880688367,9.880688367,0.314998845,0.376935171,32.53140453,32.69994197,14.25854464,16,18,99,97,2.639605855,2
471.0078122,9.943627908,10.02232676,11.9763756,12.14428463,0.319894812,0.277415224,9.85952976,9.85952976,0.314987831,0.376894285,32.52803847,32.70004505,14.2215895,15,18,99,97,2.639605855,2
472.0078122,9.944045818,10.01802806,11.966893,12.14407338,0.31443885,0.276523697,9.868828753,9.868828753,0.314979353,0.376850965,32.52461387,32.70004263,14.2215895,15,18,99,97,2.639605855,2
473.0078122,9.943806188,10.01920597,11.95336401,12.13267806,0.30652877,0.274207982,9.898080571,9.898080571,0.314978329,0.376808073,32.52116826,32.6999692,14.2215895,15,18,99,97,2.639605855,2
474.0078122,9.943597591,10.0232836,11.93882022,12.11977856,0.298205206,0.271090799,9.922498418,9.922498418,0.314974529,0.376759266,32.51761782,32.69996005,14.2215895,15,18,99,97,2.639605855,2
475.0078122,9.944752339,10.02902656,11.94773845,12.12358772,0.291215021,0.268322918,9.930844645,9.930844645,0.314967978,0.376713296,32.51404055,32.69984768,14.2215895,15,18,99,97,2.639605855,2
476.0078122,9.947451994,10.03582961,11.99604745,12.14647387,0.286157165,0.266977343,9.927121078,9.927121078,0.314970674,0.376665011,32.51044428,32.6997767,14.1424942,14,18,99,97,2.639605855,2
477.0078122,9.949778654,10.04141213,12.06494231,12.16713939,0.282851728,0.26732532,9.917668345,9.917668345,0.314975754,0.376621734,32.50682888,32.69972615,14.1424942,14,18,99,97,2.639605855,2
478.0078122,9.950017796,10.0430229,12.12605793,12.16724634,0.28127384,0.268687768,9.907679348,9.907679348,0.314980608,0.376570645,32.5033545,32.69965626,14.1424942,14,18,99,97,2.639605855,2
479.0078122,9.949025411,10.04099736,12.16425447,12.16155721,0.28180034,0.269998376,9.898918672,9.898918672,0.314989319,0.376524351,32.49982882,32.69953415,14.1424942,14,18,99,97,2.639605855,2
480.0078122,9.948634173,10.03993152,12.17439961,12.18241906,0.284486511,0.270600457,9.888567285,9.888567285,0.315000518,0.37648009,32.49629408,32.69925779,14.1424942,14,18,99,97,2.639605855,2
481.0078122,9.948850883,10.04365524,12.15746717,12.23508887,0.288452711,0.270544119,9.87795449,9.87795449,0.315013556,0.376436755,32.4927092,32.69906874,14.03260395,14,18,99,96,2.639605855,2
482.0078122,9.948416014,10.04996668,12.12621767,12.29051231,0.292187269,0.270067546,9.874161669,9.874161669,0.315024193,0.37639268,32.48907503,32.69893754,14.03260395,14,18,99,96,2.639605855,2
483.0078122,9.946854446,10.05461915,12.11398537,12.32203931,0.294429702,0.26888711,9.878560346,9.878560346,0.315040883,0.376344768,32.48545461,32.69862186,14.03260395,14,18,99,96,2.639605855,2
484.0078122,9.944663746,10.0577808,12.155262,12.32992802,0.294732058,0.26628174,9.883746885,9.883746885,0.315060864,0.376294268,32.48180178,32.69833973,14.03260395,14,18,99,96,2.639605855,2
485.0078122,9.942937628,10.06151953,12.2354024,12.33016144,0.293325932,0.261993178,9.88523025,9.88523025,0.315083864,0.376243527,32.47825361,32.69802473,14.03260395,14,18,99,96,2.639605855,2
486.0078122,9.942897392,10.06480666,12.2899222,12.33064305,0.290680648,0.25683742,9.88826441,9.88826441,0.315113988,0.37619112,32.47489793,32.69763807,14.03260395,14,18,99,96,2.639605855,2
487.0078122,9.944265723,10.06511777,12.27506828,12.32563082,0.287309696,0.252244267,9.897864961,9.897864961,0.31515158,0.376142688,32.47151416,32.6972691,13.90648551,14,18,99,96,2.639605855,2
488.0078122,9.945190995,10.06229199,12.21018856,12.3122446,0.283931219,0.249274858,9.907923679,9.907923679,0.315189487,0.376103781,32.46812326,32.69700798,13.90648551,14,18,99,96,2.639605855,2
489.0078122,9.94490899,10.05884345,12.14259913,12.29427884,0.281571928,0.248174019,9.90627884,9.90627884,0.31523236,0.376056354,32.46481225,32.69686989,13.90648551,14,18,99,96,2.639605855,2
490.0078122,9.944704581,10.05711256,12.09745458,12.26857073,0.281265476,0.248714974,9.888538115,9.888538115,0.315277853,0.376010463,32.46151888,32.69658592,13.90648551,14,18,99,96,2.639605855,2
491.0078122,9.94567781,10.05694069,12.07183411,12.22968729,0.283557462,0.25075249,9.863132229,9.863132229,0.315327288,0.375965901,32.45818279,32.69637255,13.90648551,14,18,99,96,2.639605855,2
492.0078122,9.947324006,10.05637371,12.05582193,12.18439489,0.288271451,0.254337388,9.842704911,9.842704911,0.315384704,0.375920103,32.45483285,32.6960799,13.77961559,13,18,99,96,2.639605855,2
493.0078122,9.948336271,10.05385425,12.0406273,12.14670301,0.2946073,0.259248019,9.83243416,9.83243416,0.31543987,0.37587468,32.45161069,32.69579036,13.77961559,13,18,99,96,2.639605855,2
494.0078122,9.948099598,10.05034096,12.02610119,12.1294867,0.301337288,0.264408672,9.828577569,9.828577569,0.31550254,0.375829808,32.44841857,32.6955163,13.77961559,13,18,99,96,2.639605855,2
495.0078122,9.947622579,10.04942976,12.02680575,12.13707924,0.307068789,0.268039875,9.827852424,9.827852424,0.315565143,0.375784565,32.44531606,32.69518364,13.77961559,13,18,99,96,2.639605855,2
496.0078122,9.948181144,10.05254893,12.04155662,12.15316964,0.310743181,0.268772602,9.831420007,9.831420007,0.315633169,0.375751901,32.44229525,32.69473817,13.77961559,13,18,99,96,2.639605855,2
497.0078122,9.949478893,10.05499024,12.03699322,12.15691517,0.312113101,0.266710912,9.83819848,9.83819848,0.315703859,0.37572446,32.4393354,32.69423927,13.66637085,13,18,99,95,2.639605855,2
498.0078122,9.950600104,10.05194095,11.98759419,12.15405025,0.311642242,0.263309286,9.842900852,9.842900852,0.315778662,0.3756983,32.43644194,32.69372515,13.66637085,13,18,99,95,2.639605855,2
499.0078122,9.951667669,10.04631567,11.89922875,12.15721303,0.309880928,0.260331992,9.842775213,9.842775213,0.315859769,0.375668197,32.43368747,32.69324729,13.66637085,13,18,99,95,2.639605855,2
500.0078122,9.953084958,10.04359423,11.79509203,12.14458561,0.307046365,0.25899,9.841434849,9.841434849,0.315949296,0.375646625,32.43103096,32.69271798,13.66637085,13,18,99,95,2.639605855,2
501.0078122,9.953901063,10.04239233,11.71490585,12.08395203,0.303218598,0.259599842,9.845528765,9.845528765,0.316042765,0.375622187,32.42838172,32.69224431,13.57848925,13,17,99,95,2.639605855,2
502.0078122,9.952948112,10.03781653,11.70356457,11.98971781,0.298719457,0.261510089,9.857408194,9.857408194,0.316137126,0.375602378,32.42585287,32.69192342,13.57848925,13,17,99,95,2.639605855,2
503.0078122,9.951097033,10.03093302,11.76645102,11.92255698,0.294084521,0.26343971,9.870855797,9.870855797,0.316235471,0.375586136,32.42333403,32.69155933,13.57848925,13,17,99,95,2.639605855,2
504.0078122,9.949972905,10.02741785,11.85220992,11.92390167,0.289770175,0.264370797,9.879275454,9.879275454,0.316336445,0.375569364,32.42089476,32.69105317,13.57848925,13,17,99,95,2.639605855,2
505.0078122,9.949347994,10.02877548,11.90065639,11.96492017,0.286284769,0.264308435,9.886227971,9.886227971,0.316433113,0.375554808,32.41851927,32.69068199,13.52399718,13,17,99,95,2.639605855,2
506.0078122,9.947992393,10.03129133,11.9065772,11.98539099,0.284477892,0.26414534,9.899593759,9.899593759,0.316531075,0.375545583,32.41627538,32.69030095,13.52399718,13,17,99,95,2.639605855,2
507.0078122,9.946260339,10.03238156,11.91422284,11.97157047,0.2851665,0.264692307,9.919403041,9.919403041,0.316639956,0.375534765,32.41403755,32.68991261,13.52399718,13,17,99,95,2.639605855,2
508.0078122,9.945747568,10.0333027,11.94320653,11.96264043,0.288070968,0.26581585,9.936979361,9.936979361,0.316742924,0.375528185,32.41189805,32.68951945,13.52399718,13,17,99,95,2.639605855,2
509.0078122,9.946750116,10.03477411,11.95592056,11.98275316,0.291408633,0.26649632,9.94199725,9.94199725,0.316851718,0.375527443,32.40970826,32.68919235,13.50654664,13,17,99,95,2.639605855,2
510.0078122,9.948221774,10.03405628,11.9192592,12.00837214,0.293043724,0.265716535,9.930334253,9.930334253,0.316961885,0.375524893,32.40747594,32.68879896,13.50654664,13,17,99,95,2.639605855,2
511.0078122,9.949487398,10.02932127,11.86184153,12.01306138,0.292183383,0.263273402,9.907072429,9.907072429,0.317070735,0.375526663,32.40534666,32.68820101,13.50654664,13,17,99,95,2.639605855,2
512.0078122,9.949964611,10.02281807,11.83889023,11.99816088,0.289814509,0.259753874,9.881196863,9.881196863,0.317185161,0.375526902,32.40336943,32.6876102,13.50654664,13,17,99,95,2.639605855,2
513.0078122,9.948789569,10.01840679,11.86993216,11.97688737,0.287526608,0.255874503,9.859084619,9.859084619,0.317291995,0.375530897,32.4014222,32.68707172,13.52516141,13,17,99,95,2.639605855,2
514.0078122,9.946402711,10.01959166,11.93117464,11.96556258,0.286119782,0.252021999,9.843835147,9.843835147,0.317397212,0.375544047,32.39955025,32.68659324,13.52516141,13,17,99,95,2.639605855,2
515.0078122,9.945038474,10.027823,11.98397344,11.9806741,0.28530178,0.248452359,9.837300425,9.837300425,0.317509101,0.375555067,32.39783596,32.68608604,13.52516141,13,17,99,95,2.639605855,2
516.0078122,9.94619899,10.03997939,12.00172756,12.0269152,0.28436932,0.245729176,9.838414448,9.838414448,0.317623479,0.375569678,32.39617417,32.68554176,13.52516141,13,17,99,95,2.639605855,2
517.0078122,9.948748825,10.05000508,11.98974307,12.09225705,0.28292617,0.24465342,9.842461352,9.842461352,0.317736153,0.375587945,32.39450309,32.68500247,13.57446582,13,17,99,95,2.639605855,2
518.0078122,9.950505346,10.05394566,11.98791875,12.15282896,0.281030356,0.245659516,9.845661128,9.845661128,0.317849725,0.375607105,32.39275675,32.68451278,13.57446582,13,17,99,95,2.639605855,2
519.0078122,9.950411702,10.05203259,12.03402429,12.18199092,0.278899048,0.248358228,9.847239623,9.847239623,0.317958389,0.375622492,32.39102175,32.68407991,13.57446582,13,17,99,95,2.639605855,2
520.0078122,9.949059927,10.04667846,12.11128299,12.15863835,0.276747649,0.251821299,9.847316775,9.847316775,0.31806348,0.375640653,32.38932074,32.68361478,13.57446582,13,17,99,95,2.639605855,2
521.0078122,9.947913757,10.03987064,12.15201957,12.07628426,0.274945425,0.255206854,9.846203082,9.846203082,0.318176049,0.375664601,32.3876181,32.68308586,13.57446582,13,17,99,95,2.639605855,2
522.0078122,9.947588633,10.03285155,12.11263101,11.96447045,0.273998258,0.258028555,9.844735762,9.844735762,0.31828913,0.375689443,32.38583455,32.68259944,13.64547374,13,17,99,95,2.639605855,2
523.0078122,9.947062736,10.0274356,12.02638004,11.88587652,0.274099838,0.259996428,9.844485493,9.844485493,0.318405335,0.375712253,32.38404159,32.68217504,13.64547374,13,17,99,95,2.639605855,2
524.0078122,9.945202948,10.02491019,11.95680008,11.87804,0.274904929,0.26086546,9.847553988,9.847553988,0.31852177,0.375735792,32.38230646,32.68179556,13.64547374,13,17,99,95,2.639605855,2
525.0078122,9.942949485,10.0244582,11.92350171,11.91913902,0.275998493,0.26048307,9.853362541,9.853362541,0.318640133,0.375760996,32.38052962,32.68139989,13.64547374,13,17,99,95,2.639605855,2
526.0078122,9.942657723,10.02480265,11.89996024,11.96778018,0.277315318,0.258833596,9.857223419,9.857223419,0.318761476,0.375787498,32.37874491,32.68098831,13.64547374,13,17,99,95,2.639605855,2
527.0078122,9.94474537,10.02509763,11.86353616,12.00528523,0.278774737,0.255988301,9.855947223,9.855947223,0.318873975,0.375807842,32.37692032,32.68052831,13.72691221,14,18,99,96,2.639605855,2
528.0078122,9.946908424,10.02499398,11.83143975,12.0336881,0.279809774,0.252170221,9.851807632,9.851807632,0.318988883,0.375827435,32.375107,32.67999693,13.72691221,14,18,99,96,2.639605855,2
529.0078122,9.947444923,10.02642601,11.83897623,12.05626727,0.27972796,0.247972678,9.84795004,9.84795004,0.319102419,0.375849033,32.37326281,32.67952095,13.72691221,14,18,99,96,2.639605855,2
530.0078122,9.947417878,10.03153747,11.88653664,12.06940856,0.278426515,0.244347897,9.844815032,9.844815032,0.319214298,0.375868657,32.3713195,32.6789861,13.72691221,14,18,99,96,2.639605855,2
531.0078122,9.948431552,10.03858149,11.94690454,12.07794,0.276412771,0.242103488,9.843627641,9.843627641,0.319325041,0.375888454,32.36936901,32.67845871,13.72691221,14,18,99,96,2.639605855,2
532.0078122,9.950098065,10.04454613,12.01282865,12.10036401,0.274294498,0.241368613,9.845881517,9.845881517,0.319442801,0.375909408,32.36743022,32.67792044,13.80689003,14,18,99,96,2.639605855,2
533.0078122,9.951018939,10.04845689,12.07839205,12.13782816,0.272582397,0.241569137,9.847859835,9.847859835,0.319557003,0.375926816,32.36548069,32.67741441,13.80689003,14,18,99,96,2.639605855,2
534.0078122,9.950611204,10.0490272,12.09930204,12.16776745,0.271867006,0.242058208,9.844347102,9.844347102,0.319672064,0.375939168,32.3635137,32.67680976,13.80689003,14,18,99,96,2.639605855,2
535.0078122,9.949439266,10.04434965,12.04132181,12.17601352,0.272689305,0.242851234,9.837936024,9.837936024,0.319785599,0.375948897,32.36164308,32.67627797,13.80689003,14,18,99,96,2.639605855,2
536.0078122,9.948801483,10.03571349,11.94568021,12.16463731,0.274987863,0.244810637,9.839026851,9.839026851,0.319897775,0.375951705,32.35973115,32.67567349,13.80689003,14,18,99,96,2.639605855,2
537.0078122,9.949417418,10.02803181,11.89187728,12.14114849,0.277774734,0.249028265,9.856571851,9.856571851,0.320004597,0.375951989,32.35760129,32.67513119,13.80689003,14,18,99,96,2.639605855,2
538.0078122,9.950456564,10.02539272,11.91235636,12.11902523,0.279562091,0.255836262,9.887616859,9.887616859,0.320112914,0.375953802,32.35537082,32.67459214,13.87458948,14,18,99,97,2.639605855,2
539.0078122,9.950934689,10.02865882,11.97856812,12.10956399,0.279340266,0.264276899,9.9164696,9.9164696,0.32022001,0.375952481,32.35311817,32.67406172,13.87458948,14,18,99,97,2.639605855,2
540.0078122,9.951300626,10.03653078,12.04897264,12.10324331,0.277387533,0.272488998,9.930908397,9.930908397,0.320327216,0.375943733,32.35088547,32.6735191,13.87458948,14,18,99,97,2.639605855,2
541.0078122,9.952224672,10.0453264,12.09512923,12.08223832,0.275241873,0.2786204,9.934772115,9.934772115,0.320430825,0.375934572,32.34878049,32.67296753,13.87458948,14,18,99,97,2.639605855,2
542.0078122,9.952954569,10.04939151,12.09633756,12.05435841,0.274741045,0.281492797,9.936455823,9.936455823,0.320537862,0.375923962,32.34656782,32.67230369,13.92164173,15,18,99,97,2.639605855,2
543.0078122,9.952627654,10.04581919,12.04983468,12.04967716,0.276775198,0.280736743,9.9352651,9.9352651,0.320640738,0.375911766,32.34430682,32.67177093,13.92164173,15,18,99,97,2.639605855,2
544.0078122,9.952054069,10.03845207,11.98764552,12.09067808,0.280665244,0.276757115,9.926515776,9.926515776,0.320736622,0.37590337,32.34210895,32.67118596,13.92164173,15,18,99,97,2.639605855,2
545.0078122,9.952284494,10.0346657,11.95341553,12.17694275,0.284444355,0.270839364,9.911599962,9.911599962,0.320835549,0.375896054,32.33993383,32.67059877,13.92164173,15,18,99,97,2.639605855,2
546.0078122,9.952542579,10.0378764,11.96766838,12.27278181,0.285730084,0.26499934,9.898128585,9.898128585,0.320931794,0.375884477,32.33771203,32.67001135,13.92164173,15,18,99,97,2.639605855,2
547.0078122,9.951425257,10.04494324,12.02202545,12.31363295,0.282793878,0.261118457,9.891287675,9.891287675,0.321021513,0.375871749,32.33539742,32.66942564,13.94295974,15,18,99,97,2.639605855,2
548.0078122,9.949062448,10.05158149,12.08753186,12.27171992,0.275567657,0.259828943,9.888130092,9.888130092,0.321111804,0.375847044,32.33310379,32.66884359,13.94295974,15,18,99,97,2.639605855,2
549.0078122,9.946908148,10.05703737,12.13271724,12.19693637,0.265984549,0.260228305,9.883560824,9.883560824,0.321198694,0.375820546,32.33085937,32.66821145,13.94295974,15,18,99,97,2.639605855,2
550.0078122,9.945889861,10.06097096,12.13769543,12.14779013,0.257092726,0.260775792,9.87798112,9.87798112,0.321291429,0.375796674,32.32862508,32.66753936,13.94295974,15,18,99,97,2.639605855,2
551.0078122,9.945566496,10.06075532,12.09566413,12.1217082,0.251353789,0.260564211,9.875392793,9.875392793,0.321387711,0.375768423,32.32638094,32.66689727,13.93698743,16,19,99,97,2.639605855,2
552.0078122,9.945422321,10.05585264,12.02463024,12.08785429,0.249415762,0.259845978,9.876938904,9.876938904,0.3214835,0.375742177,32.3241835,32.6662183,13.93698743,16,19,99,97,2.639605855,2
553.0078122,9.94563884,10.04937938,11.96822394,12.04051005,0.25029785,0.259349525,9.879564877,9.879564877,0.321582936,0.375709498,32.32193493,32.66567608,13.93698743,16,19,99,97,2.639605855,2
554.0078122,9.94607145,10.04273259,11.95351466,11.99524497,0.252636223,0.259098199,9.881086947,9.881086947,0.321675711,0.375673093,32.31963475,32.66511183,13.90548626,16,19,99,98,2.639605855,2
555.0078122,9.94608182,10.03497146,11.95943848,11.96958054,0.255732057,0.258159511,9.882181621,9.882181621,0.321766784,0.375637664,32.31731258,32.66457608,13.90548626,16,19,99,98,2.639605855,2
556.0078122,9.945467306,10.02770893,11.95582259,11.97315718,0.259534092,0.255807994,9.882585787,9.882585787,0.32185875,0.375598162,32.31507645,32.66405118,13.90548626,16,19,99,98,2.639605855,2
557.0078122,9.94448575,10.0241688,11.95094441,11.99889125,0.263947744,0.252710263,9.882107519,9.882107519,0.321953663,0.375554748,32.31281275,32.66353465,13.85304745,17,19,99,98,2.639605855,2
558.0078122,9.943487951,10.02419273,11.96694046,12.02957246,0.268408283,0.250604103,9.884049825,9.884049825,0.322045839,0.375516655,32.31051463,32.66306441,13.85304745,17,19,99,98,2.639605855,2
559.0078122,9.943041062,10.02538542,11.99918984,12.05103951,0.272179818,0.250761773,9.889312713,9.889312713,0.322139365,0.375476934,32.30824947,32.66253503,13.85304745,17,19,99,98,2.639605855,2
560.0078122,9.943760361,10.02709272,12.02499613,12.05253399,0.274856984,0.25299785,9.891030895,9.891030895,0.322231342,0.375439309,32.30603225,32.66199283,13.7864764,17,19,99,98,2.639605855,2
561.0078122,9.945653507,10.02942693,12.02379306,12.03189154,0.276580857,0.256119339,9.883393157,9.883393157,0.322326371,0.375404274,32.30396449,32.66145836,13.7864764,17,19,99,98,2.639605855,2
562.0078122,9.947772906,10.03121419,11.98441502,12.00909613,0.277885464,0.259091399,9.871162688,9.871162688,0.322424794,0.375370421,32.30186319,32.66084312,13.7864764,17,19,99,98,2.639605855,2
563.0078122,9.948797389,10.03084534,11.91620416,12.01223457,0.279289031,0.26165305,9.864736317,9.864736317,0.322519512,0.37533212,32.29969993,32.66031289,13.71409435,17,19,99,98,2.639605855,2
564.0078122,9.947999231,10.02823627,11.85011211,12.04159209,0.28084669,0.263926406,9.870284798,9.870284798,0.322614683,0.375301093,32.29750309,32.65991289,13.71409435,17,19,99,98,2.639605855,2
565.0078122,9.945599021,10.02607073,11.81502401,12.07211073,0.282061746,0.265738698,9.886641615,9.886641615,0.32271216,0.37526843,32.2953796,32.65945426,13.71409435,17,19,99,98,2.639605855,2
566.0078122,9.942955559,10.02753069,11.81934941,12.08762529,0.282352319,0.266659039,9.906224501,9.906224501,0.322811447,0.375233929,32.29326064,32.65900664,13.6449107,17,19,99,98,2.639605855,2
567.0078122,9.942010066,10.03225375,11.85304524,12.08772863,0.281670188,0.266737636,9.918696706,9.918696706,0.322912738,0.37520495,32.29119276,32.65857003,13.6449107,17,19,99,98,2.639605855,2
568.0078122,9.943016788,10.03628843,11.89136923,12.07829385,0.280690272,0.26690596,9.92132802,9.92132802,0.323015259,0.375175552,32.28912652,32.65814436,13.6449107,17,19,99,98,2.639605855,2
569.0078122,9.944014363,10.03646455,11.91813274,12.07552359,0.280493527,0.268338803,9.923495375,9.923495375,0.323115944,0.375147536,32.28710578,32.65769675,13.58759906,17,19,99,98,2.639605855,2
570.0078122,9.944063271,10.03522529,11.96022519,12.10330642,0.282032134,0.271301793,9.933013168,9.933013168,0.323217673,0.375123515,32.28512207,32.65722561,13.58759906,17,19,99,98,2.639605855,2
571.0078122,9.944426756,10.03875571,12.05596629,12.17124357,0.285537735,0.274600578,9.945401,9.945401,0.323322069,0.375100432,32.283089,32.65688171,13.58759906,17,19,99,98,2.639605855,2
572.0078122,9.945539013,10.04796971,12.1824415,12.25377816,0.290112462,0.276313115,9.952897681,9.952897681,0.323427411,0.375081455,32.2810573,32.65652916,13.54927554,16,19,99,99,2.639605855,2
573.0078122,9.946399707,10.05662096,12.27409347,12.30376941,0.294063927,0.275253166,9.95584226,9.95584226,0.323536468,0.375067715,32.27908785,32.65615167,13.54927554,16,19,99,99,2.639605855,2
574.0078122,9.947001563,10.05998754,12.30868261,12.29854207,0.296002113,0.271815213,9.959804148,9.959804148,0.323641624,0.375053531,32.27704139,32.65561539,13.54927554,16,19,99,99,2.639605855,2
575.0078122,9.947887641,10.05845367,12.30737879,12.25433409,0.295694821,0.267476722,9.964433849,9.964433849,0.323746817,0.375042456,32.27496002,32.65509113,13.53420686,16,19,99,99,2.639605855,2
576.0078122,9.948661067,10.05380012,12.27901643,12.19823405,0.293867262,0.263673772,9.960350048,9.960350048,0.323849641,0.37502855,32.27282804,32.65471148,13.53420686,16,19,99,99,2.639605855,2
577.0078122,9.949451792,10.0483931,12.23110039,12.15226115,0.291423236,0.261127225,9.941333298,9.941333298,0.323955892,0.375019068,32.27075613,32.6542805,13.53420686,16,19,99,99,2.639605855,2
578.0078122,9.951244931,10.04480053,12.18808457,12.12691471,0.288968764,0.259780735,9.917674924,9.917674924,0.324064031,0.375008514,32.26874176,32.6538087,13.53420686,16,19,99,99,2.639605855,2
579.0078122,9.953719493,10.04317662,12.1593373,12.11610727,0.286689279,0.25895204,9.908394723,9.908394723,0.324174144,0.375003639,32.2667576,32.65336056,13.54271262,15,19,99,99,2.639605855,2
580.0078122,9.955753263,10.04237032,12.14065151,12.11022043,0.284248288,0.257636142,9.918601045,9.918601045,0.324287172,0.375002561,32.26464473,32.65289561,13.54271262,15,19,99,99,2.639605855,2
581.0078122,9.957531247,10.04264423,12.14095508,12.10581445,0.28089615,0.255065505,9.934340737,9.934340737,0.324400484,0.374994292,32.26246574,32.6524996,13.54271262,15,19,99,99,2.639605855,2
582.0078122,9.959315087,10.04412345,12.15925536,12.10417819,0.2760722,0.251207824,9.941662156,9.941662156,0.324508728,0.37499137,32.26032672,32.65204896,13.54271262,15,19,99,99,2.639605855,2
583.0078122,9.959564367,10.0445396,12.15990083,12.11114656,0.270115358,0.246727313,9.941119755,9.941119755,0.324619181,0.374989724,32.25818916,32.65146208,13.57060644,15,18,99,99,2.639605855,2
584.0078122,9.956832065,10.04155389,12.10675301,12.13100095,0.264369292,0.242445753,9.940179421,9.940179421,0.324727329,0.374987663,32.25595109,32.65097378,13.57060644,15,18,99,99,2.639605855,2
585.0078122,9.9522956,10.03633817,12.00626578,12.16167705,0.260600953,0.23891022,9.939388713,9.939388713,0.324834776,0.374983505,32.25371266,32.65051744,13.57060644,15,18,99,99,2.639605855,2
586.0078122,9.948598715,10.03231038,11.89918492,12.196644,0.259958895,0.236289964,9.932711216,9.932711216,0.324942905,0.374985858,32.25147066,32.65001043,13.57060644,15,18,99,99,2.639605855,2
587.0078122,9.947038992,10.03088046,11.8215678,12.2207908,0.262137301,0.234527174,9.919598183,9.919598183,0.325057198,0.374983208,32.24928779,32.64944009,13.57060644,15,18,99,99,2.639605855,2
588.0078122,9.946964676,10.03124674,11.78558229,12.21677258,0.265315486,0.233455506,9.91079372,9.91079372,0.325165617,0.374987807,32.24702199,32.64890069,13.60949045,14,19,99,99,2.639605855,2
589.0078122,9.947161245,10.033657,11.78802841,12.18722256,0.267076585,0.232814399,9.916495322,9.916495322,0.325276076,0.374991585,32.24467087,32.64834984,13.60949045,14,19,99,99,2.639605855,2
590.0078122,9.947133105,10.03897552,11.81989742,12.15524414,0.265726016,0.23226546,9.932736459,9.932736459,0.325386865,0.3749906,32.24238704,32.6477665,13.60949045,14,19,99,99,2.639605855,2
591.0078122,9.947324967,10.04550763,11.86800617,12.14041044,0.261119884,0.231500711,9.947273698,9.947273698,0.325495521,0.37500056,32.24019095,32.64713602,13.60949045,14,19,99,99,2.639605855,2
592.0078122,9.948428057,10.05028646,11.9214669,12.14616739,0.254597577,0.230360056,9.952616285,9.952616285,0.325603509,0.375004368,32.23779972,32.64656555,13.60949045,14,19,99,99,2.639605855,2
593.0078122,9.950219035,10.05240507,11.9731624,12.162477,0.24820392,0.228870857,9.948418184,9.948418184,0.325705569,0.375008456,32.23541903,32.64599751,13.64805133,13,19,99,99,2.639605855,2
594.0078122,9.950920337,10.05204417,12.01076131,12.16963924,0.243665984,0.227289323,9.939689611,9.939689611,0.32580599,0.375020095,32.23306599,32.64545185,13.64805133,13,19,99,99,2.639605855,2
595.0078122,9.949079747,10.04949852,12.02503688,12.15395748,0.241713362,0.226118902,9.934324802,9.934324802,0.325912845,0.375027552,32.23063616,32.64483883,13.64805133,13,19,99,99,2.639605855,2
596.0078122,9.946303195,10.04710147,12.03083713,12.12808623,0.242121897,0.22586808,9.936524407,9.936524407,0.326019037,0.375033154,32.22826852,32.64414412,13.64805133,13,19,99,99,2.639605855,2
597.0078122,9.945676188,10.04805608,12.05871025,12.11965536,0.244241918,0.226634818,9.943191145,9.943191145,0.326125944,0.375036794,32.22603266,32.64346478,13.64805133,13,19,99,99,2.639605855,2
598.0078122,9.947431657,10.05261865,12.11296357,12.13775984,0.247431537,0.228051529,9.948087133,9.948087133,0.326230345,0.375039912,32.22376676,32.64275604,13.6742287,13,19,99,99,2.639605855,2
599.0078122,9.948591822,10.05768855,12.15197532,12.16801829,0.251194844,0.229738868,9.947278433,9.947278433,0.326329228,0.375043728,32.22137809,32.64200018,13.6742287,13,19,99,99,2.639605855,2
600.0078122,9.947042263,10.05975568,12.13420898,12.19865775,0.25513285,0.231715203,9.941411444,9.941411444,0.326429729,0.375046716,32.21904214,32.6412435,13.6742287,13,19,99,99,2.639605855,2
601.0078122,9.944143194,10.05847842,12.07556236,12.22976183,0.258783096,0.234325702,9.934858666,9.934858666,0.326524722,0.37504973,32.21670565,32.64049437,13.6742287,13,19,99,99,2.639605855,2
602.0078122,9.942450611,10.05758268,12.03801386,12.25842162,0.261504541,0.237898091,9.931590688,9.931590688,0.326618447,0.375043191,32.21438292,32.63971128,13.6742287,13,19,99,99,2.639605855,2
603.0078122,9.942350508,10.06058487,12.06837616,12.27610814,0.262658662,0.242392788,9.931283797,9.931283797,0.32671021,0.375042362,32.2120271,32.63893746,13.67781756,13,19,99,99,2.639605855,2
604.0078122,9.942493259,10.06613086,12.15959314,12.2811952,0.262022057,0.247075192,9.928684847,9.928684847,0.326803921,0.375036295,32.20973085,32.63816626,13.67781756,13,19,99,99,2.639605855,2
605.0078122,9.942711491,10.06946599,12.26013455,12.28439853,0.260065692,0.250491791,9.918652001,9.918652001,0.326897075,0.375026024,32.20748465,32.63739586,13.67781756,13,19,99,99,2.639605855,2
606.0078122,9.944493529,10.06752392,12.31169768,12.29354537,0.257923939,0.251179696,9.903695781,9.903695781,0.326986774,0.375014555,32.20523485,32.63662218,13.67781756,13,19,99,99,2.639605855,2
607.0078122,9.947833022,10.06091422,12.29224571,12.29471817,0.257086463,0.248784534,9.893503075,9.893503075,0.327082019,0.375003253,32.20309064,32.63585179,13.67781756,13,19,99,99,2.639605855,2
608.0078122,9.950044777,10.05256532,12.22711277,12.27446923,0.258755229,0.244537127,9.895415859,9.895415859,0.327172838,0.374989259,32.20103212,32.63498926,13.65284212,12,19,99,99,2.639605855,2
609.0078122,9.949020266,10.04602209,12.15026927,12.25389694,0.262967202,0.240554212,9.906433095,9.906433095,0.327262459,0.374977539,32.19893171,32.63412687,13.65284212,12,19,99,99,2.639605855,2
610.0078122,9.945842333,10.0441233,12.07941615,12.26888994,0.268212736,0.238517181,9.918189263,9.918189263,0.32734996,0.374962664,32.19686397,32.63330198,13.65284212,12,19,99,99,2.639605855,2
611.0078122,9.943945148,10.04794118,12.03542275,12.32043925,0.272229616,0.238766833,9.92854925,9.92854925,0.327430283,0.374951993,32.19490129,32.63236907,13.65284212,12,19,99,99,2.639605855,2
612.0078122,9.945562396,10.0557151,12.03735849,12.36070493,0.273681634,0.240291471,9.940615119,9.940615119,0.327510661,0.37493611,32.19302646,32.63154796,13.65284212,12,19,99,99,2.639605855,2
613.0078122,9.948930318,10.06237955,12.07118271,12.3411281,0.273124703,0.241578592,9.950792218,9.950792218,0.327595621,0.374921823,32.19108617,32.63071038,13.5990089,12,19,99,99,2.639605855,2
614.0078122,9.950487252,10.06269939,12.10257279,12.2653476,0.272304932,0.241630609,9.947815944,9.947815944,0.327683882,0.374905666,32.18925321,32.62973758,13.5990089,12,19,99,99,2.639605855,2
615.0078122,9.949004881,10.05731895,12.1150678,12.18034371,0.27261481,0.24040949,9.927185442,9.927185442,0.327777594,0.374887775,32.18748782,32.62878245,13.5990089,12,19,99,99,2.639605855,2
616.0078122,9.946174396,10.05351044,12.11625661,12.13600838,0.27426047,0.238546149,9.899359322,9.899359322,0.327868058,0.374867319,32.18577259,32.62784046,13.5990089,12,19,99,99,2.639605855,2
617.0078122,9.944104011,10.05707829,12.11612955,12.15253974,0.276547931,0.236739492,9.881105351,9.881105351,0.327954495,0.374848054,32.18413308,32.62692796,13.5990089,12,19,99,99,2.639605855,2
618.0078122,9.943221311,10.06590286,12.10964436,12.20258342,0.278471144,0.235336971,9.88303881,9.88303881,0.32804567,0.374821755,32.18260992,32.62596029,13.52176078,12,19,99,98,2.639605855,2
619.0078122,9.942613111,10.07352868,12.08586826,12.232831,0.278980572,0.234331179,9.902873178,9.902873178,0.328135953,0.374797429,32.18116092,32.62498129,13.52176078,12,19,99,98,2.639605855,2
620.0078122,9.941813589,10.07598482,12.05073173,12.21557066,0.277199692,0.233733122,9.926395065,9.926395065,0.32822666,0.374776449,32.17971439,32.62401363,13.52176078,12,19,99,98,2.639605855,2
621.0078122,9.941768026,10.073318,12.02609917,12.17095673,0.273005068,0.234035774,9.939760116,9.939760116,0.328315228,0.374749284,32.17829099,32.62307374,13.52176078,12,19,99,98,2.639605855,2
622.0078122,9.943740804,10.06718492,12.02549474,12.13749655,0.267673453,0.236300635,9.94231713,9.94231713,0.328402167,0.374723032,32.17695674,32.62204548,13.52176078,12,19,99,98,2.639605855,2
623.0078122,9.947514075,10.05947887,12.05036941,12.13217722,0.263716419,0.241501129,9.942733338,9.942733338,0.328494773,0.374690251,32.17574959,32.62099165,13.43085915,12,19,99,98,2.639605855,2
624.0078122,9.951305785,10.05243792,12.10759108,12.14414129,0.263589194,0.2493042,9.947452793,9.947452793,0.328590321,0.374656525,32.17460087,32.6200121,13.43085915,12,19,99,98,2.639605855,2
625.0078122,9.953222618,10.04814401,12.1953789,12.16334015,0.267914094,0.257447018,9.957304266,9.957304266,0.328684601,0.374624873,32.17344239,32.61903581,13.43085915,12,19,99,98,2.639605855,2
626.0078122,9.952899179,10.04757781,12.27134579,12.19752939,0.274767753,0.26276473,9.967468572,9.967468572,0.328786477,0.374593851,32.1723301,32.61801348,13.43085915,12,19,99,98,2.639605855,2
627.0078122,9.951766432,10.05015691,12.27863085,12.2432634,0.280732367,0.263304169,9.969537584,9.969537584,0.328889408,0.374557904,32.17129451,32.6169895,13.43085915,12,19,99,98,2.639605855,2
628.0078122,9.950788318,10.05412204,12.21645299,12.26925481,0.282880648,0.259494421,9.960666399,9.960666399,0.328993795,0.374519247,32.17018072,32.61591954,13.33788274,11,19,99,98,2.639605855,2
629.0078122,9.948954098,10.05766412,12.14792279,12.25198098,0.280208078,0.253287768,9.947400377,9.947400377,0.329108409,0.374476747,32.16915912,32.61479669,13.33788274,11,19,99,98,2.639605855,2
630.0078122,9.945591751,10.05945666,12.12108961,12.20069716,0.273822458,0.24644457,9.937623363,9.937623363,0.329221794,0.374436524,32.16814455,32.61366463,13.33788274,11,19,99,98,2.639605855,2
631.0078122,9.942334363,10.05872483,12.11427594,12.14155895,0.266145426,0.239742258,9.935082153,9.935082153,0.329335423,0.374398539,32.16718209,32.61254587,13.33788274,11,19,99,98,2.639605855,2
632.0078122,9.940931297,10.05563106,12.07895486,12.09582529,0.259661617,0.233386637,9.941176225,9.941176225,0.32945327,0.374353084,32.16628376,32.61145665,13.33788274,11,19,99,98,2.639605855,2
633.0078122,9.941001943,10.05155303,12.00964155,12.07287749,0.255834703,0.227609023,9.955312992,9.955312992,0.329575357,0.374308521,32.16533975,32.61031346,13.25337614,11,19,99,97,2.639605855,2
634.0078122,9.941484962,10.04874687,11.94541577,12.07343475,0.254775625,0.222757629,9.97105536,9.97105536,0.329698339,0.374265242,32.16439206,32.60924593,13.25337614,11,19,99,97,2.639605855,2
635.0078122,9.94229995,10.04840881,11.91694295,12.09010712,0.25568607,0.219101441,9.976602108,9.976602108,0.329826065,0.374213406,32.16348985,32.6082017,13.25337614,11,19,99,97,2.639605855,2
636.0078122,9.943615395,10.04877379,11.91814367,12.10537465,0.257476048,0.2167433,9.966673273,9.966673273,0.329949867,0.374169816,32.16259568,32.60705449,13.25337614,11,19,99,97,2.639605855,2
637.0078122,9.94500919,10.04726159,11.92752798,12.1031255,0.259058829,0.215739669,9.951475585,9.951475585,0.330084091,0.374123361,32.16181565,32.60588192,13.25337614,11,19,99,97,2.639605855,2
638.0078122,9.945551269,10.04453156,11.93761497,12.0872871,0.259522836,0.216114636,9.942778547,9.942778547,0.330222422,0.374070734,32.16101841,32.60478552,13.18448254,11,19,99,97,2.639605855,2
639.0078122,9.944539783,10.04338243,11.95683068,12.07640994,0.258507576,0.217664348,9.937224913,9.937224913,0.330360769,0.374024819,32.16008988,32.60350814,13.18448254,11,19,99,97,2.639605855,2
640.0078122,9.942379721,10.04424262,11.98728436,12.07835135,0.25658084,0.219736438,9.927107321,9.927107321,0.330507377,0.373981377,32.15924743,32.60229477,13.18448254,11,19,99,97,2.639605855,2
641.0078122,9.940346315,10.04506482,12.0137043,12.08524988,0.255019183,0.221384471,9.917056145,9.917056145,0.330646921,0.373935167,32.15859401,32.60117502,13.18448254,11,19,99,97,2.639605855,2
642.0078122,9.939649725,10.04468943,12.02621525,12.09239427,0.254861099,0.22187856,9.918880182,9.918880182,0.330786928,0.373892785,32.15791458,32.59999377,13.18448254,11,19,99,97,2.639605855,2
643.0078122,9.940513633,10.04364521,12.03961578,12.10648468,0.255990914,0.221058464,9.937319815,9.937319815,0.330929994,0.373844695,32.15704439,32.59891761,13.13371959,11,19,99,97,2.639605855,2
644.0078122,9.941555676,10.04285923,12.07300296,12.13258306,0.257217277,0.219225703,9.964243463,9.964243463,0.331077627,0.37380199,32.15620648,32.59772696,13.13371959,11,19,99,97,2.639605855,2
645.0078122,9.94113348,10.04290705,12.11864419,12.16291663,0.257377344,0.216856618,9.983314087,9.983314087,0.331225193,0.373760506,32.15540092,32.59650878,13.13371959,11,19,99,97,2.639605855,2
646.0078122,9.939960345,10.04324286,12.1467285,12.18301874,0.256354088,0.214490467,9.983260075,9.983260075,0.331373852,0.373715891,32.15455445,32.59532179,13.13371959,11,19,99,97,2.639605855,2
647.0078122,9.940390206,10.04255647,12.14326374,12.18450387,0.254964982,0.212749341,9.96905438,9.96905438,0.331516066,0.373672541,32.15365245,32.59424646,13.13371959,11,19,99,97,2.639605855,2
648.0078122,9.942896654,10.04096504,12.12416781,12.1735607,0.253994385,0.212257933,9.953938856,9.953938856,0.331662423,0.373627285,32.1526763,32.59310897,13.09917671,11,19,99,97,2.639605855,2
649.0078122,9.945601757,10.04015715,12.10344368,12.16639302,0.25355792,0.213364927,9.944075548,9.944075548,0.331806499,0.373580751,32.15175084,32.59193513,13.09917671,11,19,99,97,2.639605855,2
650.0078122,9.946986994,10.04048603,12.07440356,12.17070618,0.253391208,0.215769152,9.94034904,9.94034904,0.331947668,0.373535732,32.15074414,32.59076417,13.09917671,11,19,99,97,2.639605855,2
651.0078122,9.947309574,10.04016028,12.03080829,12.17809049,0.253475183,0.2183548,9.945322477,9.945322477,0.33209482,0.373486905,32.1496332,32.58964856,13.09917671,11,19,99,97,2.639605855,2
652.0078122,9.947403531,10.03841933,11.98521801,12.17791299,0.254150173,0.219675971,9.957897345,9.957897345,0.332245827,0.373440138,32.14851595,32.58850137,13.09917671,11,19,99,97,2.639605855,2
653.0078122,9.947399422,10.0380996,11.95927657,12.16972426,0.255672875,0.218968532,9.969623783,9.969623783,0.332394972,0.373396397,32.14736304,32.58731613,13.09917671,11,19,99,97,2.639605855,2
654.0078122,9.947029238,10.04236538,11.95690765,12.1593026,0.257819556,0.216821975,9.974047297,9.974047297,0.332546423,0.373348743,32.14618236,32.5861826,13.07596242,11,19,99,97,2.639605855,2
655.0078122,9.94618617,10.04903148,11.95580183,12.14786858,0.259972242,0.214774625,9.97539569,9.97539569,0.332689635,0.373305943,32.14497133,32.5850862,13.07596242,11,19,99,97,2.639605855,2
656.0078122,9.945273813,10.05257338,11.94112971,12.12884305,0.261568494,0.214140257,9.9820025,9.9820025,0.332827275,0.373262066,32.14376192,32.58396899,13.07596242,11,19,99,97,2.639605855,2
657.0078122,9.94533449,10.05155562,11.9320851,12.10195923,0.262459762,0.215114577,9.991623205,9.991623205,0.332969079,0.373221113,32.14247695,32.58288925,13.07596242,11,19,99,97,2.639605855,2
658.0078122,9.947174013,10.04943341,11.94618709,12.08401234,0.262780895,0.216952884,9.99065322,9.99065322,0.333103498,0.373178881,32.14117564,32.58181613,13.07596242,11,19,99,97,2.639605855,2
659.0078122,9.9500372,10.04931772,11.95835066,12.08620699,0.262448033,0.219006962,9.973449258,9.973449258,0.333239664,0.373135531,32.13990831,32.58069494,13.05835897,11,19,99,97,2.639605855,2
660.0078122,9.95143784,10.05067813,11.93835402,12.09257532,0.261001308,0.221465745,9.953180197,9.953180197,0.333368779,0.373098486,32.13860572,32.57962081,13.05835897,11,19,99,97,2.639605855,2
661.0078122,9.949702708,10.05025003,11.90714142,12.08860659,0.258231405,0.224893512,9.944162782,9.944162782,0.333493342,0.373066538,32.13723028,32.57855208,13.05835897,11,19,99,97,2.639605855,2
662.0078122,9.946866598,10.04660454,11.90875106,12.09498284,0.254909729,0.229107527,9.945075731,9.945075731,0.333612695,0.373033105,32.13575805,32.57744436,13.05835897,11,19,99,97,2.639605855,2
663.0078122,9.946575589,10.04287109,11.94910237,12.13963503,0.252539661,0.23284839,9.945609424,9.945609424,0.333729262,0.373000541,32.13438066,32.57629053,13.05835897,11,19,99,97,2.639605855,2
664.0078122,9.949461183,10.0428239,11.99729692,12.21456722,0.252215941,0.234698603,9.937359557,9.937359557,0.33383643,0.372968082,32.13311371,32.57511208,13.04195726,11,19,99,97,2.639605855,2
665.0078122,9.953046735,10.04621163,12.02345315,12.28285198,0.253667854,0.234323233,9.917572219,9.917572219,0.333934113,0.372936704,32.13175382,32.57389364,13.04195726,11,19,99,97,2.639605855,2
666.0078122,9.954756781,10.04883892,12.01391765,12.3065905,0.255423208,0.232652608,9.892588174,9.892588174,0.334021978,0.372901549,32.13031405,32.5727653,13.04195726,11,19,99,97,2.639605855,2
667.0078122,9.953651998,10.04744511,11.9783668,12.27543009,0.255840838,0.230936167,9.874993875,9.874993875,0.334096589,0.372871541,32.12894957,32.57153609,13.04195726,11,19,99,97,2.639605855,2
668.0078122,9.951076462,10.04494099,11.95316149,12.22134046,0.254185887,0.229785043,9.870498501,9.870498501,0.334168075,0.372843024,32.12766182,32.57033955,13.04195726,11,19,99,97,2.639605855,2
669.0078122,9.949060465,10.04616962,11.9617786,12.18218308,0.251113156,0.229145105,9.872144564,9.872144564,0.334233397,0.372817098,32.12637862,32.56917204,13.04195726,11,19,99,97,2.639605855,2
670.0078122,9.94742195,10.05023024,11.98666941,12.16611484,0.24828395,0.228948521,9.869956264,9.869956264,0.334297312,0.372791244,32.12510787,32.56791893,13.02509315,11,19,99,97,2.639605855,2
671.0078122,9.944897716,10.05308204,12.00772485,12.16414319,0.247232321,0.229510892,9.862410769,9.862410769,0.334361938,0.372764131,32.12373354,32.56674759,13.02509315,11,19,99,97,2.639605855,2
672.0078122,9.942254125,10.05308966,12.02506216,12.17042776,0.24819997,0.231257105,9.858574218,9.858574218,0.334415661,0.372737837,32.12232255,32.56560911,13.02509315,11,19,99,97,2.639605855,2
673.0078122,9.94147848,10.05172474,12.03802308,12.18208342,0.249914084,0.234225827,9.868392589,9.868392589,0.334462427,0.372720375,32.12099872,32.56444134,13.02509315,11,19,99,97,2.639605855,2
674.0078122,9.942967067,10.0521188,12.04151239,12.19099924,0.250567562,0.237944798,9.890600518,9.890600518,0.334501083,0.372699017,32.11960491,32.56336717,13.02509315,11,19,99,97,2.639605855,2
675.0078122,9.945467116,10.05499439,12.03547568,12.18883169,0.249187251,0.24168878,9.914172177,9.914172177,0.334531183,0.372683661,32.11812365,32.56221223,13.00916256,11,19,99,97,2.639605855,2
676.0078122,9.947139775,10.05697806,12.03111174,12.17474376,0.246279619,0.24470288,9.930495557,9.930495557,0.334555474,0.372667333,32.11663268,32.56102568,13.00916256,11,19,99,97,2.639605855,2
677.0078122,9.946819453,10.05580237,12.04257227,12.14740092,0.243383502,0.246151187,9.938052096,9.938052096,0.334573935,0.372655241,32.1151318,32.55972495,13.00916256,11,19,99,97,2.639605855,2
678.0078122,9.945354887,10.05279474,12.0613096,12.10564007,0.241991652,0.24525997,9.936426501,9.936426501,0.33458081,0.372643243,32.113575,32.55840531,13.00916256,11,19,99,97,2.639605855,2
679.0078122,9.944992762,10.04931463,12.06099636,12.06460562,0.242703116,0.241890384,9.92434349,9.92434349,0.334584504,0.372631123,32.11193173,32.55713083,13.00916256,11,19,99,97,2.639605855,2
680.0078122,9.946787782,10.04571824,12.03734568,12.05578787,0.245101624,0.237031289,9.90565882,9.90565882,0.334585201,0.372619138,32.11022827,32.55584608,12.99777325,11,19,99,97,2.639605855,2
681.0078122,9.949537705,10.04316958,12.01387602,12.09722272,0.248232477,0.232434621,9.889617498,9.889617498,0.33458039,0.372608681,32.10861524,32.55454457,12.99777325,11,19,99,97,2.639605855,2
682.0078122,9.951807595,10.04390025,12.00942916,12.16543912,0.25123401,0.229594349,9.882195384,9.882195384,0.33456904,0.372602203,32.10698454,32.55323584,12.99777325,11,19,99,97,2.639605855,2
683.0078122,9.953492265,10.04906389,12.01495758,12.21171786,0.253738439,0.22909273,9.881886899,9.881886899,0.334551167,0.37259947,32.10533026,32.55184512,12.99777325,11,19,99,97,2.639605855,2
684.0078122,9.954562074,10.05615219,12.00871319,12.21210351,0.255816999,0.230785631,9.884090443,9.884090443,0.334533463,0.372598681,32.10365722,32.5504164,12.99777325,11,19,99,97,2.639605855,2
685.0078122,9.954310395,10.06021676,11.99406473,12.18858366,0.257565762,0.234282165,9.8870487,9.8870487,0.334516838,0.372598389,32.10203836,32.54900407,12.99507459,11,19,99,97,2.639605855,2
686.0078122,9.952719624,10.05840019,11.99270698,12.174968,0.258840761,0.239098035,9.893088792,9.893088792,0.334500625,0.372594448,32.10055626,32.54765974,12.99507459,11,19,99,97,2.639605855,2
687.0078122,9.951244598,10.05275248,12.00735115,12.18061687,0.259508526,0.244516349,9.902963146,9.902963146,0.334486956,0.372589211,32.09888654,32.54623966,12.99507459,11,19,99,97,2.639605855,2
688.0078122,9.951498777,10.04834865,12.0324671,12.1906721,0.259838241,0.24956086,9.911703793,9.911703793,0.334473843,0.372591776,32.09722678,32.54483213,12.99507459,11,19,99,97,2.639605855,2
689.0078122,9.953131996,10.04779069,12.07350351,12.18300439,0.260423815,0.253324255,9.913999301,9.913999301,0.334454689,0.372589497,32.09564454,32.54347645,12.99507459,11,19,99,97,2.639605855,2
690.0078122,9.95400823,10.04860489,12.11789975,12.14999595,0.261744509,0.25533833,9.912099708,9.912099708,0.33443855,0.372591375,32.09396103,32.54210592,13.00386941,11,19,99,97,2.639605855,2
691.0078122,9.952841934,10.04730957,12.13353407,12.11284034,0.264016712,0.255646112,9.915282459,9.915282459,0.334416461,0.372590594,32.09229929,32.54072345,13.00386941,11,19,99,97,2.639605855,2
692.0078122,9.950789493,10.04345914,12.11917618,12.10233278,0.267428566,0.254456523,9.927397664,9.927397664,0.334396841,0.372591284,32.09057361,32.539332,13.00386941,11,19,99,97,2.639605855,2
693.0078122,9.95023495,10.0390745,12.10492595,12.12771067,0.272109661,0.251913877,9.937592576,9.937592576,0.334377456,0.372594558,32.08887046,32.53791169,13.00386941,11,19,99,97,2.639605855,2
694.0078122,9.951893146,10.0370939,12.10187265,12.17433147,0.277544469,0.248257476,9.933814691,9.933814691,0.334361234,0.372596553,32.08722848,32.53646125,13.00386941,11,19,99,97,2.639605855,2
695.0078122,9.95377763,10.03939407,12.09640101,12.21602582,0.282188764,0.243983058,9.920538762,9.920538762,0.334347027,0.3725972,32.08557345,32.53495898,13.0241695,11,19,99,97,2.639605855,2
696.0078122,9.953681033,10.04434509,12.07567998,12.22734366,0.284167033,0.239638364,9.911165396,9.911165396,0.334336624,0.372597458,32.08393783,32.53344463,13.0241695,11,19,99,97,2.639605855,2
697.0078122,9.951770544,10.04846414,12.03484889,12.20564462,0.282680442,0.235543604,9.909828335,9.909828335,0.334324463,0.372596482,32.0823446,32.53197107,13.0241695,11,19,99,97,2.639605855,2
698.0078122,9.950217616,10.05088657,11.98888637,12.1792831,0.278704187,0.231869928,9.909403642,9.909403642,0.334307523,0.372597762,32.08068992,32.53049748,13.0241695,11,19,99,97,2.639605855,2
699.0078122,9.950614822,10.0536178,11.97828093,12.18113466,0.274157589,0.228919235,9.904837482,9.904837482,0.334289927,0.372592275,32.07915033,32.52904793,13.0241695,11,19,99,97,2.639605855,2
700.0078122,9.95248521,10.05761998,12.02893681,12.2139134,0.270322922,0.227108172,9.905337054,9.905337054,0.334271092,0.372587722,32.07772305,32.52764111,13.05269255,11,19,99,97,2.639605855,2
701.0078122,9.954098158,10.06128441,12.11643291,12.24553427,0.267042607,0.226573675,9.927195512,9.927195512,0.334261544,0.372578474,32.07624832,32.52616159,13.05269255,11,19,99,97,2.639605855,2
702.0078122,9.954013913,10.06300761,12.19284418,12.24331724,0.263395911,0.226886041,9.97074019,9.97074019,0.334259083,0.372569892,32.07471135,32.52476603,13.05269255,11,19,99,97,2.639605855,2
703.0078122,9.952637161,10.06303681,12.22824537,12.20707901,0.259031097,0.227280534,10.01269394,10.01269394,0.334254719,0.372559136,32.07338728,32.52336436,13.05269255,11,19,99,97,2.639605855,2
704.0078122,9.951657167,10.06162523,12.21838837,12.15895316,0.254766221,0.227118073,10.02884389,10.02884389,0.334254692,0.372550185,32.07213439,32.52197663,13.05269255,11,19,99,97,2.639605855,2
705.0078122,9.951287684,10.05810385,12.18707414,12.11826434,0.251825921,0.226013752,10.01885036,10.01885036,0.334256174,0.372537808,32.07094086,32.52064177,13.08347543,11,19,99,97,2.639605855,2
706.0078122,9.950234025,10.05385387,12.1793276,12.09994957,0.250662873,0.223684461,10.00111493,10.00111493,0.334267532,0.372530423,32.06991065,32.51927829,13.08347543,11,19,99,97,2.639605855,2
707.0078122,9.948313077,10.05303559,12.21614817,12.11305645,0.25063501,0.220088078,9.989265874,9.989265874,0.334280171,0.372516466,32.06887111,32.51793879,13.08347543,11,19,99,97,2.639605855,2
708.0078122,9.946993615,10.05755006,12.26824603,12.1488018,0.25076795,0.215900604,9.982403139,9.982403139,0.334297479,0.37250879,32.06795524,32.51659965,13.08347543,11,19,99,97,2.639605855,2
709.0078122,9.947673911,10.06392363,12.29616429,12.18813641,0.250654004,0.212621341,9.973459425,9.973459425,0.334314898,0.372497433,32.06708307,32.51526009,13.08347543,11,19,99,97,2.639605855,2
710.0078122,9.950328028,10.06772045,12.29040523,12.22139198,0.250580427,0.21181855,9.959865241,9.959865241,0.334334676,0.372485193,32.06641098,32.51397452,13.10940961,11,19,99,97,2.639605855,2
711.0078122,9.953488328,10.06842844,12.26387727,12.24911464,0.250985454,0.214027897,9.945229778,9.945229778,0.334345249,0.372472397,32.06583595,32.51268876,13.10940961,11,19,99,97,2.639605855,2
712.0078122,9.955491911,10.06857495,12.23758581,12.2708121,0.252006288,0.218333663,9.933745009,9.933745009,0.33435879,0.372455651,32.06537822,32.51145251,13.10940961,11,19,99,97,2.639605855,2
713.0078122,9.956239571,10.07008048,12.22950974,12.28179246,0.253538299,0.223014789,9.927124386,9.927124386,0.334369634,0.372437631,32.06506154,32.51025871,13.10940961,11,19,99,97,2.639605855,2
714.0078122,9.956877244,10.07264306,12.23842477,12.27953528,0.255543181,0.226592059,9.925976838,9.925976838,0.33437557,0.372419976,32.06479849,32.50905532,13.10940961,11,19,99,97,2.639605855,2
715.0078122,9.957449255,10.07557227,12.25485978,12.26800619,0.258223946,0.228419403,9.930303265,9.930303265,0.334379862,0.372396672,32.06472651,32.50787927,13.12421153,11,19,99,97,2.639605855,2
716.0078122,9.956751263,10.078792,12.27446588,12.25491865,0.262052606,0.228701409,9.938132578,9.938132578,0.334382549,0.372374745,32.06465156,32.50677162,13.12421153,11,19,99,97,2.639605855,2
717.0078122,9.954526869,10.08068517,12.2755362,12.24423174,0.267731216,0.228349108,9.944994482,9.944994482,0.334383259,0.372348235,32.06468063,32.50569555,13.12421153,11,19,99,97,2.639605855,2
718.0078122,9.952179478,10.0784644,12.22700375,12.23387374,0.276061835,0.228902966,9.945810052,9.945810052,0.334381729,0.372319631,32.06483961,32.50451199,13.12421153,11,19,99,97,2.639605855,2
719.0078122,9.95111594,10.07213705,12.15220744,12.23981811,0.287466126,0.23221834,9.938796105,9.938796105,0.334382908,0.372290526,32.06515853,32.50339963,13.12421153,11,19,99,97,2.639605855,2
720.0078122,9.951701434,10.06627952,12.14670091,12.31577767,0.301232166,0.239701304,9.926839629,9.926839629,0.334384112,0.372258475,32.0656168,32.50227682,12.49518575,16,18,99,99,3.381464179,3
721.0078122,9.954338601,10.06699105,12.30918237,12.51638474,0.315120807,0.251362966,9.913966843,9.913966843,0.334382259,0.372225304,32.0661233,32.50117039,12.49518575,16,18,99,99,3.381464179,3
722.0078122,9.959258583,10.07660204,12.64697524,12.83331926,0.32607095,0.265359952,9.903628624,9.903628624,0.334376397,0.372188649,32.06673418,32.50010241,12.49518575,16,18,99,99,3.381464179,3
723.0078122,9.964773952,10.09198899,13.04172238,13.17968236,0.331856767,0.278566693,9.9011988,9.9011988,0.334378359,0.372152366,32.06744421,32.49911038,12.49518575,16,18,99,99,3.381464179,3
724.0078122,9.968593836,10.10808629,13.34141563,13.45107878,0.332415085,0.288023281,9.913239527,9.913239527,0.334381027,0.37211639,32.06803213,32.4980341,12.61044379,16,18,99,99,3.381464179,3
725.0078122,9.97045139,10.12035456,13.48881904,13.59992029,0.329620803,0.292329194,9.942286213,9.942286213,0.334383068,0.372076555,32.06872551,32.49690332,12.61044379,16,18,99,99,3.381464179,3
726.0078122,9.971423657,10.12454933,13.52229416,13.64987039,0.325734343,0.292047503,9.983092884,9.983092884,0.334383136,0.372044935,32.06962333,32.49583521,12.8242448,16,18,99,100,3.381464179,3
727.0078122,9.972076793,10.11949259,13.49131688,13.64912429,0.322003191,0.289034822,10.02334481,10.02334481,0.334377573,0.372007409,32.07050724,32.49476622,12.8242448,16,18,99,100,3.381464179,3
728.0078122,9.972122171,10.11036094,13.43234532,13.6222079,0.318574738,0.28537183,10.0506041,10.0506041,0.334367832,0.371960553,32.07135207,32.4937748,12.8242448,16,18,99,100,3.381464179,3
729.0078122,9.971196401,10.10548667,13.38770093,13.58440384,0.315413681,0.282532571,10.06035703,10.06035703,0.334354464,0.371913806,32.07227218,32.49270754,13.10591383,15,19,99,100,3.381464179,3
730.0078122,9.97003578,10.10870043,13.3804696,13.5656782,0.313064175,0.28112076,10.05607689,10.05607689,0.334332569,0.371865938,32.07317986,32.49169166,13.10591383,15,19,99,100,3.381464179,3
731.0078122,9.970157153,10.11560466,13.38455991,13.58196396,0.31241021,0.28108984,10.04472916,10.04472916,0.33430315,0.371815269,32.07423567,32.4905674,13.10591383,15,19,99,100,3.381464179,3
732.0078122,9.971799684,10.11957913,13.36908357,13.62001522,0.313806374,0.282246726,10.03244821,10.03244821,0.334270999,0.371764737,32.07539134,32.48943864,13.10591383,15,19,99,100,3.381464179,3
733.0078122,9.973447615,10.1198768,13.35181515,13.66360034,0.316507183,0.284541127,10.02017069,10.02017069,0.334232134,0.371717749,32.076416,32.48830489,13.10591383,15,19,99,100,3.381464179,3
734.0078122,9.973707342,10.11918003,13.36177694,13.70296802,0.319051035,0.287902965,10.00548892,10.00548892,0.334195369,0.371664684,32.07746617,32.48716574,13.41639716,14,19,99,101,3.381464179,3
735.0078122,9.972527829,10.11710292,13.38379611,13.72677392,0.320324081,0.291916525,9.991613065,9.991613065,0.33416097,0.371613886,32.07859159,32.48597519,13.41639716,14,19,99,101,3.381464179,3
736.0078122,9.97096797,10.11387325,13.3940615,13.73792928,0.320289905,0.295740514,9.989789854,9.989789854,0.33412929,0.371568953,32.07972535,32.48472472,13.41639716,14,19,99,101,3.381464179,3
737.0078122,9.970284533,10.1146564,13.41063719,13.76016962,0.319697558,0.298316154,10.00849526,10.00849526,0.334099835,0.371525769,32.0807742,32.48348934,13.41639716,14,19,99,101,3.381464179,3
738.0078122,9.970580797,10.12112122,13.45202521,13.79606851,0.319208829,0.29868751,10.04212442,10.04212442,0.334074513,0.37148041,32.08170184,32.48232445,13.71614661,13,19,99,101,3.381464179,3
739.0078122,9.970819991,10.12595908,13.48604155,13.80970834,0.318884859,0.296400612,10.07476267,10.07476267,0.334055266,0.371438426,32.08262158,32.48109367,13.71614661,13,19,99,101,3.381464179,3
740.0078122,9.970776174,10.12315063,13.46996734,13.77556459,0.318318523,0.291968773,10.09349903,10.09349903,0.334031465,0.371394316,32.0834654,32.47982044,13.71614661,13,19,99,101,3.381464179,3
741.0078122,9.971472967,10.11590379,13.41167465,13.70879299,0.317022484,0.287056967,10.09331028,10.09331028,0.334009261,0.371348071,32.08415722,32.47859502,13.71614661,13,19,99,101,3.381464179,3
742.0078122,9.972782203,10.11037618,13.36226318,13.64099672,0.314733538,0.283856458,10.07607594,10.07607594,0.33398485,0.37130516,32.08472136,32.47724063,13.71614661,13,19,99,101,3.381464179,3
743.0078122,9.972759199,10.1095138,13.36708713,13.59690154,0.311560719,0.283856394,10.05142504,10.05142504,0.33396667,0.371261776,32.08523942,32.47596126,13.97364632,12,19,99,102,3.381464179,3
744.0078122,9.970370319,10.11443361,13.43176649,13.59251536,0.307885856,0.286890437,10.03035939,10.03035939,0.333951494,0.371214855,32.08557839,32.47460873,13.97364632,12,19,99,102,3.381464179,3
745.0078122,9.967208759,10.12459697,13.51696772,13.62487723,0.304171523,0.291367523,10.01513093,10.01513093,0.333928965,0.371173116,32.08583647,32.47318979,13.97364632,12,19,99,102,3.381464179,3
746.0078122,9.966239075,10.13527892,13.56742431,13.65969604,0.301036441,0.295309682,10.00264146,10.00264146,0.33391356,0.371129516,32.08587311,32.47173404,13.97364632,12,19,99,102,3.381464179,3
747.0078122,9.968958486,10.13994576,13.56054098,13.66341362,0.299531825,0.297233007,9.993925083,9.993925083,0.333889552,0.371092389,32.08586339,32.47036018,13.97364632,12,19,99,102,3.381464179,3
748.0078122,9.973639525,10.13702459,13.51410889,13.64988813,0.300934779,0.296508864,9.991344574,9.991344574,0.333868435,0.371060428,32.08590936,32.46892092,14.17210171,11,19,99,102,3.381464179,3
749.0078122,9.977281417,10.13084854,13.45699916,13.65406109,0.305788589,0.293471831,9.990549739,9.990549739,0.333852391,0.371023783,32.08576846,32.46741088,14.17210171,11,19,99,102,3.381464179,3
750.0078122,9.978573629,10.12657674,13.42577711,13.66732047,0.313019696,0.289343063,9.983451407,9.983451407,0.333836399,0.370985517,32.08556395,32.46582969,14.17210171,11,19,99,102,3.381464179,3
751.0078122,9.977967769,10.12677091,13.45069227,13.65535036,0.320179191,0.285750123,9.969683431,9.969683431,0.3338337,0.370950396,32.08524166,32.46426281,14.17210171,11,19,99,102,3.381464179,3
752.0078122,9.976581423,10.12935689,13.50574043,13.62468409,0.324857925,0.283891308,9.960862262,9.960862262,0.333837022,0.370917034,32.08480628,32.46272594,14.17210171,11,19,99,102,3.381464179,3
753.0078122,9.975518868,10.12819333,13.52876971,13.61261101,0.32620907,0.283820667,9.97210416,9.97210416,0.333839018,0.37088557,32.0842915,32.46113901,14.17210171,11,19,99,102,3.381464179,3
754.0078122,9.974921057,10.1199507,13.511046,13.63577934,0.325296976,0.284428407,10.00735052,10.00735052,0.333846099,0.370851715,32.08362943,32.45956653,14.31209359,11,19,99,102,3.381464179,3
755.0078122,9.974351679,10.10902855,13.49918437,13.6793026,0.323945664,0.284292408,10.04991099,10.04991099,0.333857081,0.370814951,32.08291079,32.45804452,14.31209359,11,19,99,102,3.381464179,3
756.0078122,9.974094318,10.10210704,13.51186103,13.70799136,0.323165243,0.282787643,10.07231469,10.07231469,0.333867338,0.370783373,32.08201825,32.45655446,14.31209359,11,19,99,102,3.381464179,3
757.0078122,9.974394128,10.10158192,13.5311238,13.6969511,0.322504504,0.280510524,10.05977007,10.05977007,0.333883577,0.370754392,32.08094587,32.454943,14.31209359,11,19,99,102,3.381464179,3
758.0078122,9.97437348,10.10593403,13.55638547,13.66135353,0.320690778,0.278703151,10.02173532,10.02173532,0.333907776,0.370729429,32.07987291,32.45332615,14.31209359,11,19,99,102,3.381464179,3
759.0078122,9.973466972,10.11155943,13.59848014,13.63300118,0.316834616,0.278298256,9.981528461,9.981528461,0.333935169,0.370709464,32.07866516,32.45170717,14.31209359,11,19,99,102,3.381464179,3
760.0078122,9.972586972,10.11542017,13.64349102,13.62533255,0.311328915,0.279286706,9.956879941,9.956879941,0.333964696,0.370686216,32.07736117,32.45007839,14.31209359,11,19,99,102,3.381464179,3
761.0078122,9.972897101,10.11927195,13.66251484,13.63499271,0.305936108,0.280679607,9.948373824,9.948373824,0.333988678,0.370662312,32.07595738,32.44842431,14.40936703,10,19,99,101,3.381464179,3
762.0078122,9.974480598,10.12693112,13.64440114,13.65341105,0.30293999,0.281119639,9.945480976,9.945480976,0.334017062,0.370643175,32.07450964,32.44678243,14.40936703,10,19,99,101,3.381464179,3
763.0078122,9.976019528,10.13711886,13.60524334,13.67398794,0.303740877,0.279903726,9.942127687,9.942127687,0.334046761,0.370624655,32.07307924,32.44516633,14.40936703,10,19,99,101,3.381464179,3
764.0078122,9.975893685,10.14455258,13.57031504,13.69621095,0.307830979,0.277650922,9.942457292,9.942457292,0.334070416,0.370603591,32.07149267,32.44359731,14.40936703,10,19,99,101,3.381464179,3
765.0078122,9.974261099,10.14697581,13.55681,13.72175739,0.313061883,0.275926002,9.95204849,9.95204849,0.334092163,0.370582551,32.06978765,32.4420435,14.40936703,10,19,99,101,3.381464179,3
766.0078122,9.972984821,10.14685349,13.57231678,13.74426492,0.317121227,0.276068806,9.970264704,9.970264704,0.334113207,0.370563584,32.06792948,32.44049684,14.40936703,10,19,99,101,3.381464179,3
767.0078122,9.973403402,10.14657921,13.6120294,13.74876653,0.318947965,0.278221405,9.995053693,9.995053693,0.334132381,0.370543871,32.06612295,32.43895232,14.40936703,10,19,99,101,3.381464179,3
768.0078122,9.97535772,10.14459186,13.64795291,13.73258059,0.318854136,0.281290289,10.0243958,10.0243958,0.33415025,0.370527471,32.06428082,32.43741993,14.48860656,10,19,99,101,3.381464179,3
769.0078122,9.977612142,10.13724011,13.63845147,13.71070205,0.317549307,0.283743794,10.0452831,10.0452831,0.334175497,0.370513586,32.0624071,32.43588087,14.48860656,10,19,99,101,3.381464179,3
770.0078122,9.978462919,10.12419363,13.57177993,13.68821161,0.315352609,0.284452019,10.04071635,10.04071635,0.334204688,0.370500341,32.06055257,32.43448673,14.48860656,10,19,99,101,3.381464179,3
771.0078122,9.977107769,10.10989451,13.48518034,13.65389576,0.31226297,0.283032395,10.01714058,10.01714058,0.334228693,0.370486548,32.05871837,32.43314943,14.48860656,10,19,99,101,3.381464179,3
772.0078122,9.974693301,10.09925167,13.42235085,13.60486822,0.308392059,0.279720807,10.00107919,10.00107919,0.334251569,0.370482239,32.05692967,32.431764,14.48860656,10,19,99,101,3.381464179,3
773.0078122,9.973395361,10.09407323,13.39193926,13.55603935,0.304162679,0.275247251,10.0034067,10.0034067,0.334281284,0.370472805,32.0551069,32.43029269,14.48860656,10,19,99,101,3.381464179,3
774.0078122,9.974455455,10.09381505,13.37926278,13.52902401,0.300285152,0.270867461,10.00944279,10.00944279,0.334313507,0.370465598,32.05324847,32.42887546,14.48860656,10,19,99,101,3.381464179,3
775.0078122,9.977057833,10.09804234,13.38281809,13.54000685,0.297657128,0.268285574,10.00591946,10.00591946,0.334343367,0.370463402,32.05125904,32.42745743,14.57522619,11,19,99,101,3.381464179,3
776.0078122,9.979317092,10.10568599,13.41563061,13.59120355,0.297133876,0.26925024,9.999000951,9.999000951,0.334372552,0.370458699,32.04930037,32.42608748,14.57522619,11,19,99,101,3.381464179,3
777.0078122,9.980185391,10.11291108,13.47058187,13.65623106,0.299228451,0.274880022,9.999791814,9.999791814,0.334396864,0.370458903,32.04736543,32.42473578,14.57522619,11,19,99,101,3.381464179,3
778.0078122,9.979499655,10.1168839,13.5261249,13.68163558,0.303862768,0.284926846,10.00579821,10.00579821,0.33442984,0.370457771,32.04539411,32.42342319,14.57522619,11,19,99,101,3.381464179,3
779.0078122,9.977313995,10.12213512,13.59656389,13.64680815,0.310065047,0.297358827,10.00752237,10.00752237,0.334469666,0.370458279,32.0434969,32.42223975,14.57522619,11,19,99,101,3.381464179,3
780.0078122,9.974857296,10.13629224,13.71663722,13.60686404,0.315720877,0.308796142,10.0035732,10.0035732,0.334510956,0.370456865,32.04155136,32.42095424,14.57522619,11,19,99,101,3.381464179,3
781.0078122,9.974063289,10.15665632,13.85760741,13.61777347,0.318072447,0.31593025,9.998016496,9.998016496,0.334554411,0.370453314,32.03962591,32.41973048,14.57522619,11,19,99,101,3.381464179,3
782.0078122,9.975449256,10.16946848,13.93328725,13.65444758,0.315301989,0.317145432,9.991869558,9.991869558,0.33460134,0.370450707,32.03766831,32.41852588,14.57522619,11,19,99,101,3.381464179,3
783.0078122,9.978318498,10.16657743,13.90980293,13.66290629,0.308097589,0.313042029,9.986223821,9.986223821,0.334640748,0.370450393,32.03562524,32.41729506,14.68757222,11,20,99,100,3.381464179,3
784.0078122,9.981561739,10.15344055,13.832154,13.64374933,0.299635077,0.305717883,9.985685594,9.985685594,0.334677448,0.370450741,32.03369821,32.41607364,14.68757222,11,20,99,100,3.381464179,3
785.0078122,9.983615929,10.13919934,13.74441527,13.62941331,0.293662545,0.297570379,9.993887973,9.993887973,0.334711262,0.370453679,32.0317086,32.41500267,14.68757222,11,20,99,100,3.381464179,3
786.0078122,9.983633449,10.12991326,13.66580743,13.62635238,0.292280451,0.29057268,10.00953326,10.00953326,0.334750755,0.370455733,32.02967969,32.41384726,14.68757222,11,20,99,100,3.381464179,3
787.0078122,9.98257821,10.12965371,13.62849771,13.62142704,0.295232723,0.286036409,10.02775383,10.02775383,0.334800523,0.370459895,32.02772378,32.41261093,14.68757222,11,20,99,100,3.381464179,3
788.0078122,9.982177612,10.13811305,13.65795252,13.60896248,0.300973886,0.284483101,10.04187167,10.04187167,0.33485325,0.370462169,32.0256972,32.41144285,14.68757222,11,20,99,100,3.381464179,3
789.0078122,9.982947846,10.14806204,13.71883532,13.59105381,0.308109243,0.285609446,10.04320289,10.04320289,0.334910848,0.370465947,32.02365044,32.41027335,14.83166703,12,20,99,100,3.381464179,3
790.0078122,9.9835279,10.15013799,13.74123232,13.58052274,0.31579611,0.288566427,10.02672214,10.02672214,0.334970565,0.370468358,32.02158728,32.40914809,14.83166703,12,20,99,100,3.381464179,3
791.0078122,9.982306263,10.14127196,13.70521528,13.59688625,0.323185297,0.292420581,9.998472532,9.998472532,0.335035172,0.37047504,32.01948708,32.40802969,14.83166703,12,20,99,100,3.381464179,3
792.0078122,9.97961016,10.12772523,13.65247969,13.63318969,0.329064049,0.296419805,9.971969786,9.971969786,0.335100623,0.370481606,32.01716838,32.40686764,14.83166703,12,20,99,100,3.381464179,3
793.0078122,9.977559399,10.12004487,13.62021147,13.65962718,0.332351874,0.300072174,9.958575847,9.958575847,0.335169698,0.370485412,32.01495886,32.4057051,14.83166703,12,20,99,100,3.381464179,3
794.0078122,9.977666477,10.12495043,13.62212789,13.67624587,0.33293305,0.303259247,9.96099117,9.96099117,0.3352448,0.370489847,32.01278725,32.40454227,14.83166703,12,20,99,100,3.381464179,3
795.0078122,9.979002281,10.14035096,13.68327564,13.7107943,0.331927204,0.306157166,9.971412106,9.971412106,0.335316387,0.370495888,32.01055652,32.40340129,14.99993338,13,20,99,100,3.381464179,3
796.0078122,9.978997369,10.15682088,13.81028238,13.7636406,0.331051924,0.308661132,9.977392474,9.977392474,0.33539318,0.370499917,32.0082344,32.4023657,14.99993338,13,20,99,100,3.381464179,3
797.0078122,9.976299605,10.16439717,13.9281832,13.80874615,0.331509426,0.310028032,9.971425027,9.971425027,0.335473256,0.370499052,32.00586054,32.40137567,14.99993338,13,20,99,100,3.381464179,3
798.0078122,9.972057016,10.15932361,13.93228859,13.83541596,0.333243075,0.309492334,9.952111107,9.952111107,0.335554156,0.370501641,32.00349054,32.40034484,14.99993338,13,20,99,100,3.381464179,3
799.0078122,9.967882183,10.14565593,13.81272483,13.8491115,0.335136149,0.30731428,9.923396781,9.923396781,0.335631281,0.370507771,32.00106212,32.39919882,15.17427725,14,21,99,101,3.381464179,3
800.0078122,9.964393558,10.13143828,13.66026958,13.85091156,0.33591499,0.304885954,9.897911082,9.897911082,0.335717419,0.370511558,31.99853366,32.39794801,15.17427725,14,21,99,101,3.381464179,3
801.0078122,9.962202299,10.12265394,13.55516109,13.83986763,0.33506466,0.303704383,9.88650581,9.88650581,0.335806663,0.370516671,31.99601209,32.3967105,15.17427725,14,21,99,101,3.381464179,3
802.0078122,9.961713666,10.11974441,13.51585193,13.82876338,0.333184184,0.304387925,9.881846925,9.881846925,0.335901585,0.370521172,31.99342896,32.39553689,15.17427725,14,21,99,101,3.381464179,3
803.0078122,9.962022661,10.11909262,13.52844668,13.83604341,0.331530778,0.306554673,9.868049752,9.868049752,0.335995862,0.37052202,31.99078587,32.39428235,15.33254896,15,21,99,101,3.381464179,3
804.0078122,9.962105211,10.11676661,13.56616197,13.84881981,0.331032384,0.309254268,9.845594588,9.845594588,0.336089247,0.370527532,31.98801529,32.39303401,15.33254896,15,21,99,101,3.381464179,3
805.0078122,9.962117842,10.11261151,13.60556536,13.83041968,0.331571743,0.311370443,9.833918917,9.833918917,0.336193538,0.370531966,31.98511853,32.39180812,15.33254896,15,21,99,101,3.381464179,3
806.0078122,9.962384724,10.11093778,13.64248025,13.78030342,0.332156169,0.311848197,9.849599297,9.849599297,0.336298648,0.370531112,31.98205292,32.39049931,15.45614376,15,21,99,101,3.381464179,3
807.0078122,9.962220509,10.11474893,13.67453395,13.74119054,0.331736924,0.309953007,9.888061306,9.888061306,0.336401181,0.370534715,31.97898832,32.38915509,15.45614376,15,21,99,101,3.381464179,3
808.0078122,9.960737232,10.12181313,13.6871217,13.74398203,0.32987858,0.305697918,9.926687975,9.926687975,0.336511968,0.37053185,31.97583389,32.38781683,15.45614376,15,21,99,101,3.381464179,3
809.0078122,9.95835745,10.12762135,13.66960216,13.76765459,0.326817184,0.300168428,9.945491287,9.945491287,0.336626181,0.370532217,31.97259013,32.38652521,15.45614376,15,21,99,101,3.381464179,3
810.0078122,9.956449526,10.12848512,13.62671416,13.75374668,0.323178857,0.29514935,9.943848925,9.943848925,0.336747737,0.370529995,31.96927313,32.38523143,15.53598512,16,21,99,102,3.381464179,3
811.0078122,9.955593228,10.12253268,13.56897847,13.67208206,0.319872714,0.292110415,9.93530939,9.93530939,0.336873599,0.370525147,31.96581783,32.38395627,15.53598512,16,21,99,102,3.381464179,3
812.0078122,9.955204518,10.11119856,13.50427981,13.56572569,0.318116086,0.291351821,9.931784489,9.931784489,0.336986682,0.370517674,31.96232476,32.38248981,15.53598512,16,21,99,102,3.381464179,3
813.0078122,9.954956564,10.09903649,13.44647811,13.50777785,0.319066537,0.292004019,9.93634116,9.93634116,0.33710341,0.370507575,31.95876281,32.38104281,15.57478368,16,21,99,102,3.381464179,3
814.0078122,9.95556001,10.09055961,13.41552343,13.53218607,0.322996214,0.292755303,9.943784815,9.943784815,0.337214459,0.37049765,31.95507332,32.37961922,15.57478368,16,21,99,102,3.381464179,3
815.0078122,9.957278303,10.08765581,13.41927271,13.62131915,0.328779182,0.292598775,9.944061252,9.944061252,0.337316416,0.370496164,31.95135263,32.37815562,15.57478368,16,21,99,102,3.381464179,3
816.0078122,9.959016175,10.08903138,13.44040323,13.72199636,0.334354778,0.291100159,9.931754492,9.931754492,0.337415942,0.370490223,31.94759778,32.37666089,15.58506173,16,21,99,103,3.381464179,3
817.0078122,9.960090437,10.09151247,13.44151407,13.77431264,0.337821004,0.288353333,9.915137192,9.915137192,0.337511203,0.370486102,31.94382893,32.37522416,15.58506173,16,21,99,103,3.381464179,3
818.0078122,9.961175476,10.09307101,13.40466599,13.76295002,0.338293108,0.284995953,9.90933692,9.90933692,0.337598091,0.370473786,31.9399749,32.37370661,15.58506173,16,21,99,103,3.381464179,3
819.0078122,9.962325589,10.0948724,13.36740422,13.72710128,0.336118149,0.282184305,9.920933997,9.920933997,0.337689897,0.370463408,31.9360113,32.37216901,15.58417112,15,21,99,103,3.381464179,3
820.0078122,9.962219161,10.10018927,13.38748121,13.70516932,0.332521246,0.281156884,9.945287492,9.945287492,0.337783705,0.370451209,31.93215071,32.3706639,15.58417112,15,21,99,103,3.381464179,3
821.0078122,9.960706302,10.11118283,13.48047025,13.70146482,0.328835399,0.282436716,9.973144149,9.973144149,0.337882314,0.370438344,31.92823913,32.36910458,15.58417112,15,21,99,103,3.381464179,3
822.0078122,9.959727629,10.12583708,13.60554783,13.71932979,0.325663439,0.285221207,9.993805236,9.993805236,0.337969369,0.370427761,31.92435647,32.36753064,15.58417112,15,21,99,103,3.381464179,3
823.0078122,9.96070999,10.13728041,13.68883842,13.76658197,0.322696328,0.287463534,9.998909084,9.998909084,0.338059385,0.370415725,31.92041262,32.36594925,15.58853156,15,21,99,104,3.381464179,3
824.0078122,9.962915323,10.13801809,13.6760372,13.81402358,0.319336527,0.286851346,9.986343879,9.986343879,0.33814979,0.370403541,31.91639886,32.36431145,15.58853156,15,21,99,104,3.381464179,3
825.0078122,9.964689918,10.12858786,13.58958461,13.82764913,0.315476514,0.282247988,9.958197554,9.958197554,0.338234495,0.370396587,31.91244374,32.36270776,15.58853156,15,21,99,104,3.381464179,3
826.0078122,9.96539586,10.11971595,13.50837615,13.82230661,0.311630778,0.274552495,9.922912074,9.922912074,0.338314744,0.370385718,31.90850265,32.36105694,15.58853156,15,21,99,104,3.381464179,3
827.0078122,9.965554974,10.12122226,13.49085773,13.82314601,0.308554866,0.266147226,9.898159466,9.898159466,0.338392029,0.370371037,31.90453141,32.35934777,15.58853156,15,21,99,104,3.381464179,3
828.0078122,9.965202192,10.13217667,13.54682221,13.8303851,0.306886106,0.259425731,9.895353457,9.895353457,0.338470227,0.370356607,31.90057358,32.3576521,15.60919483,14,21,99,104,3.381464179,3
829.0078122,9.963685513,10.14428139,13.66180149,13.83587697,0.306858548,0.255796026,9.906127256,9.906127256,0.338542742,0.37033725,31.89659202,32.3560495,15.60919483,14,21,99,104,3.381464179,3
830.0078122,9.96181608,10.1499522,13.79813328,13.82452898,0.308008621,0.255759659,9.915453679,9.915453679,0.338602009,0.370327041,31.89255393,32.3543973,15.60919483,14,21,99,104,3.381464179,3
831.0078122,9.962079481,10.14612383,13.88040974,13.7816246,0.309237031,0.259320232,9.917159834,9.917159834,0.338660104,0.370312068,31.88845347,32.35252191,15.60919483,14,21,99,104,3.381464179,3
832.0078122,9.965125568,10.1355173,13.85050834,13.72292556,0.309504699,0.265890548,9.912148667,9.912148667,0.338718094,0.370301203,31.88440064,32.35078448,15.60919483,14,21,99,104,3.381464179,3
833.0078122,9.967925157,10.12414956,13.74025499,13.68658149,0.30866521,0.273913451,9.904184788,9.904184788,0.338763455,0.370291864,31.880355,32.34920772,15.64987272,14,21,99,104,3.381464179,3
834.0078122,9.967298989,10.11577101,13.62637651,13.69473253,0.307599949,0.281073019,9.900745639,9.900745639,0.338810827,0.370280924,31.87640263,32.34761514,15.64987272,14,21,99,104,3.381464179,3
835.0078122,9.963975878,10.11101273,13.53806165,13.74036566,0.307440316,0.285479429,9.908136888,9.908136888,0.338855886,0.370271072,31.87266267,32.34595201,15.64987272,14,21,99,104,3.381464179,3
836.0078122,9.961361222,10.10982975,13.46631616,13.7982773,0.308561931,0.286893544,9.920264878,9.920264878,0.338901949,0.370260702,31.86890546,32.34428568,15.64987272,14,21,99,104,3.381464179,3
837.0078122,9.960980503,10.1115203,13.41934142,13.8433057,0.310210039,0.286860716,9.923561919,9.923561919,0.338945825,0.370252653,31.86522722,32.34264627,15.64987272,14,21,99,104,3.381464179,3
838.0078122,9.961448357,10.11393483,13.40924277,13.85787327,0.311062829,0.28736335,9.917985491,9.917985491,0.338979643,0.370245274,31.86164907,32.34097939,15.70740299,13,20,99,105,3.381464179,3
839.0078122,9.961768477,10.11404212,13.41831129,13.830554,0.310224248,0.289286354,9.916083725,9.916083725,0.33900392,0.370235505,31.85807629,32.33918501,15.70740299,13,20,99,105,3.381464179,3
840.0078122,9.962573189,10.11058213,13.4247708,13.7719761,0.30789894,0.292131976,9.921337953,9.921337953,0.339021273,0.370223404,31.85449735,32.33744835,15.70740299,13,20,99,105,3.381464179,3
841.0078122,9.96362609,10.10644,13.43469826,13.71930916,0.305322068,0.29498864,9.924957846,9.924957846,0.33903772,0.370218454,31.85101171,32.3356838,15.70740299,13,20,99,105,3.381464179,3
842.0078122,9.963139239,10.10541371,13.4657245,13.70491243,0.30396685,0.297432515,9.921374608,9.921374608,0.339051547,0.370209147,31.8476312,32.33397053,15.77383338,13,21,99,105,3.381464179,3
843.0078122,9.960420076,10.10745176,13.5156989,13.72949841,0.30446799,0.299407823,9.917474472,9.917474472,0.339069498,0.370204314,31.84445706,32.33224365,15.77383338,13,21,99,105,3.381464179,3
844.0078122,9.956984361,10.10875512,13.55552377,13.76143234,0.306047456,0.300558547,9.925193167,9.925193167,0.339088755,0.370198089,31.84123352,32.33057984,15.77383338,13,21,99,105,3.381464179,3
845.0078122,9.955015237,10.10580392,13.55942384,13.76778528,0.307052027,0.300096392,9.946679659,9.946679659,0.339109943,0.370190486,31.83799582,32.32889523,15.77383338,13,21,99,105,3.381464179,3
846.0078122,9.955847693,10.10029983,13.5340843,13.75938246,0.306236095,0.297462476,9.974008158,9.974008158,0.339125465,0.370184218,31.83480133,32.32712547,15.77383338,13,21,99,105,3.381464179,3
847.0078122,9.958871856,10.09803963,13.50256064,13.77847325,0.303580565,0.293002248,10.00010469,10.00010469,0.339131565,0.370174419,31.83164991,32.32546717,15.83908038,13,21,99,105,3.381464179,3
848.0078122,9.961759077,10.10177563,13.47755149,13.82963001,0.299932217,0.2878951,10.01692684,10.01692684,0.33913373,0.370165446,31.8286843,32.32386069,15.83908038,13,21,99,105,3.381464179,3
849.0078122,9.963309738,10.10854347,13.45794352,13.86100902,0.296187361,0.283565623,10.01329484,10.01329484,0.339136551,0.370156886,31.82577998,32.32221968,15.83908038,13,21,99,105,3.381464179,3
850.0078122,9.964812403,10.1133617,13.43139448,13.82959977,0.293014894,0.281047201,9.990602755,9.990602755,0.339139059,0.370147151,31.8228905,32.32051633,15.83908038,13,21,99,105,3.381464179,3
851.0078122,9.966894153,10.11439845,13.39093757,13.75461384,0.291148254,0.280608951,9.969989736,9.969989736,0.33914741,0.370136267,31.81997809,32.31877963,15.89332364,13,21,99,105,3.381464179,3
852.0078122,9.967806749,10.11413862,13.35765172,13.6835512,0.291372916,0.281669598,9.973270464,9.973270464,0.339158098,0.370113726,31.81717938,32.31711714,15.89332364,13,21,99,105,3.381464179,3
853.0078122,9.966478675,10.11388449,13.36024214,13.63221253,0.293877784,0.2831196,10.00187417,10.00187417,0.339173699,0.370087105,31.81442331,32.31541494,15.89332364,13,21,99,105,3.381464179,3
854.0078122,9.964682171,10.11163208,13.40168567,13.60067931,0.297652257,0.283942892,10.03818594,10.03818594,0.339189766,0.370052262,31.81174949,32.31366608,15.89332364,13,21,99,105,3.381464179,3
855.0078122,9.96437796,10.10816593,13.46296001,13.61313956,0.30076946,0.28372521,10.06449276,10.06449276,0.339213486,0.370009804,31.80916356,32.31191415,15.89332364,13,21,99,105,3.381464179,3
856.0078122,9.964790575,10.10831411,13.51853279,13.68045826,0.301575614,0.282757579,10.07415628,10.07415628,0.339229583,0.369971211,31.80662304,32.31013779,15.92865577,13,21,99,105,3.381464179,3
857.0078122,9.964147531,10.11442888,13.54676155,13.75761221,0.299847413,0.281750209,10.06619976,10.06619976,0.339242649,0.369940096,31.80424986,32.30830012,15.92865577,13,21,99,105,3.381464179,3
858.0078122,9.962709995,10.12344778,13.53713814,13.78502305,0.296857701,0.281358398,10.0408614,10.0408614,0.339254971,0.36990954,31.80181383,32.30649231,15.92865577,13,21,99,105,3.381464179,3
859.0078122,9.962137913,10.13068553,13.49975499,13.74888326,0.294279924,0.281829114,10.00362901,10.00362901,0.339279255,0.369869934,31.79947274,32.30478436,15.92865577,13,21,99,105,3.381464179,3
860.0078122,9.962951064,10.13480649,13.46928367,13.68422535,0.292955469,0.283010326,9.967465798,9.967465798,0.339310847,0.369828223,31.79721582,32.30316356,15.93983149,13,21,99,105,3.381464179,3
861.0078122,9.964003718,10.13794388,13.47749889,13.63148112,0.292497487,0.284657584,9.945815697,9.945815697,0.339346738,0.369784018,31.79499767,32.30149491,15.93983149,13,21,99,105,3.381464179,3
862.0078122,9.963842983,10.14129991,13.52358424,13.60502478,0.291782895,0.286617572,9.940460526,9.940460526,0.339382807,0.369739762,31.79287223,32.29966593,15.93983149,13,21,99,105,3.381464179,3
863.0078122,9.96245155,10.14325944,13.58340858,13.60009643,0.289766436,0.2885818,9.939674773,9.939674773,0.339415847,0.369698495,31.79075403,32.29786713,15.93983149,13,21,99,105,3.381464179,3
864.0078122,9.961692955,10.14256743,13.63838511,13.61025077,0.286220365,0.2896682,9.934459394,9.934459394,0.339453687,0.369652093,31.78877318,32.29608924,15.93983149,13,21,99,105,3.381464179,3
865.0078122,9.962785368,10.13955615,13.677996,13.63230751,0.282131972,0.28860572,9.931220665,9.931220665,0.339491445,0.369605031,31.7869752,32.29429075,15.92420902,13,21,99,105,3.381464179,3
866.0078122,9.964274809,10.13460551,13.68651125,13.66302476,0.279503402,0.284759004,9.937784802,9.937784802,0.339528237,0.369559354,31.7851914,32.29247331,15.92420902,13,21,99,105,3.381464179,3
867.0078122,9.964261801,10.12956163,13.65603687,13.69876137,0.280457202,0.279078103,9.944008841,9.944008841,0.33957477,0.369502195,31.78355956,32.29064957,15.92420902,13,21,99,105,3.381464179,3
868.0078122,9.96312699,10.12719698,13.6035379,13.7421244,0.285884773,0.273849828,9.933633569,9.933633569,0.339624115,0.369442884,31.78183638,32.28882915,15.92420902,13,21,99,105,3.381464179,3
869.0078122,9.962635341,10.12732668,13.55840741,13.80142322,0.294329259,0.271305069,9.911314822,9.911314822,0.339678047,0.369387737,31.78018869,32.2869261,15.92420902,13,21,99,105,3.381464179,3
870.0078122,9.963757798,10.12727225,13.54301786,13.86327645,0.302197885,0.272258808,9.899866431,9.899866431,0.339733674,0.369330215,31.77866638,32.28497665,15.88118059,13,22,99,105,3.381464179,3
871.0078122,9.966010534,10.12487528,13.56243672,13.8788965,0.305812195,0.27578196,9.913352663,9.913352663,0.339783788,0.369271635,31.77729133,32.28301773,15.88118059,13,22,99,105,3.381464179,3
872.0078122,9.967884255,10.11976769,13.60298343,13.81705587,0.303993829,0.279909598,9.943459791,9.943459791,0.339846093,0.369216549,31.77599099,32.28108089,15.88118059,13,22,99,105,3.381464179,3
873.0078122,9.96828084,10.11470847,13.64147482,13.71950248,0.298880684,0.282729748,9.969340055,9.969340055,0.339919119,0.369164164,31.7747874,32.279197,15.88118059,13,22,99,105,3.381464179,3
874.0078122,9.967713666,10.11399965,13.65749938,13.65471466,0.29418075,0.283205757,9.978886661,9.978886661,0.339990905,0.369112112,31.77365265,32.27716427,15.81153966,13,22,99,105,3.381464179,3
875.0078122,9.966999289,10.1190095,13.64473653,13.64118126,0.292454749,0.28138647,9.980692408,9.980692408,0.340074595,0.369056416,31.77254965,32.27505988,15.81153966,13,22,99,105,3.381464179,3
876.0078122,9.966182667,10.12635945,13.61883618,13.64568015,0.293679131,0.278024994,9.992377865,9.992377865,0.340156823,0.369004936,31.7714895,32.27303974,15.81153966,13,22,99,105,3.381464179,3
877.0078122,9.96534678,10.13189319,13.5981287,13.64396073,0.295726902,0.274011965,10.0187642,10.0187642,0.340236843,0.36895562,31.77051564,32.27099641,15.81153966,13,22,99,105,3.381464179,3
878.0078122,9.96522663,10.13577493,13.58592577,13.64214035,0.296090432,0.27009224,10.04513128,10.04513128,0.340324264,0.368909854,31.76949996,32.26888818,15.81153966,13,22,99,105,3.381464179,3
879.0078122,9.966287846,10.14008731,13.57170912,13.6409092,0.293568762,0.266917625,10.053661,10.053661,0.340408228,0.368864816,31.76875973,32.26679753,15.71725081,13,22,99,105,3.381464179,3
880.0078122,9.967999434,10.14264251,13.54055861,13.62743149,0.288911271,0.265046324,10.04149825,10.04149825,0.340481249,0.368819732,31.7680362,32.2646283,15.71725081,13,22,99,105,3.381464179,3
881.0078122,9.969575685,10.14113352,13.49768765,13.61118796,0.284089024,0.264702428,10.01664842,10.01664842,0.340556007,0.368781682,31.76722746,32.26239763,15.71725081,13,22,99,105,3.381464179,3
882.0078122,9.971018881,10.14039629,13.47900247,13.62970783,0.280882744,0.265564657,9.988827643,9.988827643,0.340628801,0.368745488,31.7664529,32.26025586,15.71725081,13,22,99,105,3.381464179,3
883.0078122,9.972456292,10.14592758,13.5122481,13.70464606,0.279953604,0.266885074,9.970510158,9.970510158,0.340699996,0.368711659,31.76572773,32.25806442,15.60188755,13,22,99,105,3.381464179,3
884.0078122,9.972501132,10.15461806,13.57782743,13.81037362,0.280893899,0.267950482,9.969478434,9.969478434,0.340765649,0.368682953,31.76495059,32.25592491,15.60188755,13,22,99,105,3.381464179,3
885.0078122,9.969519953,10.15991349,13.62344953,13.89884563,0.282817004,0.268624313,9.979138793,9.979138793,0.340833693,0.368658253,31.76427201,32.25375726,15.60188755,13,22,99,105,3.381464179,3
886.0078122,9.96475937,10.16036588,13.61137108,13.94745242,0.284890906,0.26948569,9.987055041,9.987055041,0.340903476,0.368637987,31.76352129,32.25149489,15.60188755,13,22,99,105,3.381464179,3
887.0078122,9.961600278,10.15831376,13.55612757,13.97063945,0.286612321,0.27122415,9.990080846,9.990080846,0.340978418,0.368620536,31.76272797,32.24939565,15.60188755,13,22,99,105,3.381464179,3
888.0078122,9.961671645,10.15555615,13.51160576,13.97837497,0.28787834,0.273723558,9.996095912,9.996095912,0.341049687,0.36861133,31.76192875,32.24725271,15.47158724,13,21,99,105,3.381464179,3
889.0078122,9.963420983,10.15203644,13.51118443,13.95163076,0.288873293,0.275802139,10.00992019,10.00992019,0.341116031,0.368604978,31.76109319,32.24505663,15.47158724,13,21,99,105,3.381464179,3
890.0078122,9.964576351,10.1470443,13.54235829,13.88664575,0.289814806,0.276079183,10.02165044,10.02165044,0.341180082,0.368602584,31.76024367,32.24277535,15.47158724,13,21,99,105,3.381464179,3
891.0078122,9.965074207,10.14140867,13.57494196,13.81414965,0.290674255,0.274193518,10.01642805,10.01642805,0.341249442,0.36860626,31.75930122,32.24062512,15.47158724,13,21,99,105,3.381464179,3
892.0078122,9.965999537,10.13633069,13.58453245,13.75688629,0.291235965,0.271209904,9.993243773,9.993243773,0.341317399,0.368613014,31.75829657,32.2383813,15.33589386,13,21,99,104,3.381464179,3
893.0078122,9.966572007,10.13133061,13.56415335,13.7183972,0.291619408,0.268844071,9.96593029,9.96593029,0.341379507,0.368621588,31.75724998,32.23605413,15.33589386,13,21,99,104,3.381464179,3
894.0078122,9.965663603,10.12621882,13.53742845,13.69546673,0.292681861,0.268251108,9.949157789,9.949157789,0.341436687,0.368641845,31.7561194,32.23384276,15.33589386,13,21,99,104,3.381464179,3
895.0078122,9.964579255,10.12207739,13.54070819,13.68056192,0.295574745,0.269428959,9.951972645,9.951972645,0.341486484,0.368663258,31.75478947,32.23154488,15.33589386,13,21,99,104,3.381464179,3
896.0078122,9.964921122,10.11837821,13.5764703,13.67857773,0.300715895,0.271616976,9.978184413,9.978184413,0.34154009,0.368686709,31.75338289,32.22933652,15.33589386,13,21,99,104,3.381464179,3
897.0078122,9.966288893,10.11330663,13.61271332,13.70288799,0.307274797,0.274191375,10.01836553,10.01836553,0.34158893,0.368713476,31.75196032,32.22709806,15.20760726,13,21,99,104,3.381464179,3
898.0078122,9.96750412,10.10818201,13.62263614,13.74492299,0.313679155,0.277290391,10.04730177,10.04730177,0.34163646,0.368747435,31.75036784,32.22488793,15.20760726,13,21,99,104,3.381464179,3
899.0078122,9.967879128,10.10584735,13.59453698,13.77768112,0.318567721,0.281757967,10.04716097,10.04716097,0.341681392,0.368781223,31.74864738,32.22270423,15.20760726,13,21,99,104,3.381464179,3
900.0078122,9.967491852,10.10538581,13.53956437,13.78794431,0.321505136,0.288418115,10.02579193,10.02579193,0.341721024,0.368820054,31.7468251,32.2206328,15.20760726,13,21,99,104,3.381464179,3
901.0078122,9.966568944,10.10525369,13.51589366,13.78232793,0.323236335,0.297112116,9.99948473,9.99948473,0.341755746,0.368856174,31.74487262,32.21859404,15.10100993,13,21,99,104,3.381464179,3
902.0078122,9.96457346,10.10724003,13.58451373,13.7699147,0.325225859,0.306185141,9.973673228,9.973673228,0.34178963,0.368897911,31.74274341,32.21644318,15.10100993,13,21,99,104,3.381464179,3
903.0078122,9.961627638,10.11187804,13.72337896,13.76178463,0.328449284,0.313227246,9.951135634,9.951135634,0.341821412,0.368939822,31.74040757,32.21428531,15.10100993,13,21,99,104,3.381464179,3
904.0078122,9.959976728,10.11682476,13.84472949,13.7709844,0.332198808,0.316554507,9.940943282,9.940943282,0.341847506,0.368987481,31.73791506,32.21220666,15.10100993,13,21,99,104,3.381464179,3
905.0078122,9.961441534,10.12154265,13.89056278,13.79116862,0.334243206,0.316079526,9.946413046,9.946413046,0.341874733,0.369035209,31.73545688,32.21008075,15.10100993,13,21,99,104,3.381464179,3
906.0078122,9.964358653,10.12643124,13.86275693,13.79804813,0.332495214,0.312809042,9.95482443,9.95482443,0.34190327,0.369087131,31.73283643,32.20803537,15.02863659,13,21,99,104,3.381464179,3
907.0078122,9.96545618,10.12953534,13.783904,13.78018291,0.326656625,0.307810858,9.951628372,9.951628372,0.341927325,0.369144217,31.73008492,32.2060072,15.02863659,13,21,99,104,3.381464179,3
908.0078122,9.963965176,10.12903367,13.67277904,13.75158123,0.318342502,0.301861278,9.939862383,9.939862383,0.341953673,0.369197644,31.72714305,32.2039172,15.02863659,13,21,99,104,3.381464179,3
909.0078122,9.962166635,10.12620971,13.55279172,13.73888723,0.309881089,0.295690312,9.933088141,9.933088141,0.341980156,0.369252864,31.72405439,32.2018773,15.02863659,13,21,99,104,3.381464179,3
910.0078122,9.96231605,10.12452303,13.45873543,13.75163946,0.303107664,0.289932333,9.934085702,9.934085702,0.342004895,0.369311235,31.72083799,32.19995188,14.99771819,13,20,99,104,3.381464179,3
911.0078122,9.963782201,10.12612137,13.42057834,13.75807829,0.298928086,0.284739127,9.933443076,9.933443076,0.342027079,0.369365496,31.71748397,32.19802944,14.99771819,13,20,99,104,3.381464179,3
912.0078122,9.964024188,10.13069261,13.44058754,13.71765663,0.297424745,0.279827276,9.924235314,9.924235314,0.3420461,0.369433622,31.71402569,32.19613109,14.99771819,13,20,99,104,3.381464179,3
913.0078122,9.962862329,10.1372406,13.48636338,13.6377774,0.298069304,0.275094693,9.908307098,9.908307098,0.342065073,0.369501047,31.71047607,32.1943063,14.99771819,13,20,99,104,3.381464179,3
914.0078122,9.963336096,10.14312345,13.50891135,13.56648738,0.299923259,0.271028021,9.892193238,9.892193238,0.342095604,0.369568631,31.70669847,32.19255033,14.99771819,13,20,99,104,3.381464179,3
915.0078122,9.966863762,10.14460215,13.48479134,13.53834746,0.301810128,0.268520196,9.881878097,9.881878097,0.342123815,0.369638802,31.70279538,32.19081528,15.00793451,13,20,99,104,3.381464179,3
916.0078122,9.970741519,10.14132691,13.43709972,13.55140741,0.302568536,0.268325821,9.878602884,9.878602884,0.342160217,0.369698414,31.69884558,32.18906077,15.00793451,13,20,99,104,3.381464179,3
917.0078122,9.972114466,10.13650492,13.40139478,13.58942845,0.301596135,0.270672322,9.880741883,9.880741883,0.342202991,0.369752881,31.69468701,32.18732406,15.00793451,13,20,99,104,3.381464179,3
918.0078122,9.971667252,10.13303261,13.39172464,13.63862032,0.299474358,0.275130592,9.890371664,9.890371664,0.342249571,0.369801288,31.69054691,32.18566075,15.00793451,13,20,99,104,3.381464179,3
919.0078122,9.971419152,10.13132202,13.40580651,13.68266327,0.297851827,0.280749604,9.912078432,9.912078432,0.342294148,0.369851947,31.68643476,32.1839588,15.00793451,13,20,99,104,3.381464179,3
920.0078122,9.971014281,10.12946307,13.43771932,13.71560315,0.298285377,0.28643388,9.944991628,9.944991628,0.342336071,0.369901947,31.68222142,32.182279,15.05169009,13,20,99,104,3.381464179,3
921.0078122,9.968864138,10.12536065,13.47882289,13.7552259,0.301015321,0.291405919,9.97842665,9.97842665,0.342375533,0.369950884,31.67802925,32.18062792,15.05169009,13,20,99,104,3.381464179,3
922.0078122,9.965615683,10.12008651,13.52253157,13.81643527,0.304811722,0.295421685,9.996414717,9.996414717,0.342415984,0.370001118,31.67376272,32.17904517,15.05169009,13,20,99,104,3.381464179,3
923.0078122,9.963757965,10.11796119,13.57644985,13.87821559,0.307889638,0.298457488,9.991685538,9.991685538,0.342467641,0.370044588,31.669478,32.17758999,15.05169009,13,20,99,104,3.381464179,3
924.0078122,9.964070699,10.12102709,13.64337651,13.89280879,0.309045525,0.300093365,9.974564057,9.974564057,0.342522915,0.370082573,31.66517056,32.17603739,15.11692445,13,20,99,104,3.381464179,3
925.0078122,9.964906497,10.12578793,13.68789567,13.833097,0.308268641,0.299388163,9.960057748,9.960057748,0.342574188,0.37012336,31.66074691,32.17445545,15.11692445,13,20,99,104,3.381464179,3
926.0078122,9.965259815,10.12878135,13.67322892,13.72932264,0.306569384,0.295699639,9.949050239,9.949050239,0.342625046,0.370159016,31.65639855,32.17292818,15.11692445,13,20,99,104,3.381464179,3
927.0078122,9.965789741,10.13194796,13.62353038,13.65410011,0.30526376,0.289677741,9.93199478,9.93199478,0.342680673,0.370196298,31.65202392,32.17151527,15.11692445,13,20,99,104,3.381464179,3
928.0078122,9.966913249,10.13764537,13.59662836,13.66177233,0.30527979,0.283306738,9.907773744,9.907773744,0.342734012,0.370241329,31.64766839,32.1701321,15.11692445,13,20,99,104,3.381464179,3
929.0078122,9.967972715,10.14290233,13.61231852,13.74168996,0.306767056,0.278753989,9.88746443,9.88746443,0.34279262,0.370275739,31.64340944,32.16875628,15.19119742,13,20,99,104,3.381464179,3
930.0078122,9.967821367,10.14391016,13.64212003,13.83039015,0.30906962,0.277076132,9.879343705,9.879343705,0.342852074,0.370307041,31.63907459,32.16741817,15.19119742,13,20,99,104,3.381464179,3
931.0078122,9.966061902,10.14150805,13.65646668,13.86656725,0.311120931,0.277790944,9.881131228,9.881131228,0.342916101,0.370340794,31.63470861,32.1660706,15.19119742,13,20,99,104,3.381464179,3
932.0078122,9.963889039,10.13864643,13.654805,13.84366477,0.312138804,0.279512281,9.88887312,9.88887312,0.342987147,0.370368389,31.63032122,32.1646534,15.19119742,13,20,99,104,3.381464179,3
933.0078122,9.962874188,10.13552661,13.64658509,13.79525762,0.311998184,0.28103729,9.902351682,9.902351682,0.343047294,0.370390009,31.62600657,32.16324343,15.19119742,13,20,99,104,3.381464179,3
934.0078122,9.963368592,10.12986662,13.63524945,13.73670795,0.310925201,0.28201155,9.919470746,9.919470746,0.343114683,0.370408698,31.62178255,32.16187711,15.26524394,13,20,99,104,3.381464179,3
935.0078122,9.964720316,10.12239998,13.62621158,13.66330502,0.309073549,0.282787778,9.935377275,9.935377275,0.343177552,0.370426766,31.61754301,32.16064644,15.26524394,13,20,99,104,3.381464179,3
936.0078122,9.966160388,10.11790264,13.6160786,13.58446208,0.306541866,0.283870584,9.946123179,9.946123179,0.343236585,0.370444374,31.61340382,32.15925006,15.26524394,13,20,99,104,3.381464179,3
937.0078122,9.966873079,10.11857038,13.58862252,13.52468512,0.303532973,0.28547649,9.946826998,9.946826998,0.34329952,0.370457667,31.60925558,32.15781969,15.26524394,13,20,99,104,3.381464179,3
938.0078122,9.965877373,10.1223525,13.54911618,13.5098969,0.300306981,0.287311684,9.934972911,9.934972911,0.343354976,0.370472367,31.60520646,32.156494,15.33464361,13,20,99,104,3.381464179,3
939.0078122,9.962837046,10.12747964,13.5297994,13.54856669,0.297213688,0.288600009,9.918009012,9.918009012,0.343416384,0.370488266,31.60116682,32.15522646,15.33464361,13,20,99,104,3.381464179,3
940.0078122,9.959192368,10.13215357,13.54777565,13.61075672,0.294876614,0.288540152,9.90634105,9.90634105,0.343495975,0.37050142,31.59714669,32.15389046,15.33464361,13,20,99,104,3.381464179,3
941.0078122,9.957547406,10.13226144,13.58784298,13.65551424,0.293925284,0.286934335,9.902154181,9.902154181,0.343574341,0.370514484,31.59322278,32.15260058,15.33464361,13,20,99,104,3.381464179,3
942.0078122,9.9590997,10.12600883,13.62658183,13.6811645,0.294209909,0.284281389,9.903825942,9.903825942,0.343654198,0.3705266,31.58939822,32.15125815,15.39929627,13,20,99,104,3.381464179,3
943.0078122,9.962360225,10.11820443,13.65540198,13.7097087,0.29445733,0.281172378,9.911537212,9.911537212,0.34375009,0.370537817,31.58553999,32.1499373,15.39929627,13,20,99,104,3.381464179,3
944.0078122,9.964815171,10.11470521,13.67405658,13.73662792,0.293177061,0.277764423,9.920491709,9.920491709,0.343849515,0.370544943,31.58171823,32.14868527,15.39929627,13,20,99,104,3.381464179,3
945.0078122,9.965202242,10.11637222,13.67132259,13.73682002,0.290048262,0.274006091,9.921297573,9.921297573,0.343954445,0.370552539,31.57781545,32.14737088,15.39929627,13,20,99,104,3.381464179,3
946.0078122,9.96442569,10.12109246,13.64251308,13.70640783,0.286339385,0.270199227,9.914470177,9.914470177,0.344047406,0.370558048,31.57400441,32.14616053,15.39929627,13,20,99,104,3.381464179,3
947.0078122,9.964268363,10.12653712,13.61637796,13.67103335,0.283919994,0.267005126,9.910469604,9.910469604,0.344130021,0.370570109,31.5702547,32.14482238,15.46133757,13,20,99,104,3.381464179,3
948.0078122,9.964561641,10.12953811,13.61997864,13.65215456,0.283811845,0.264851341,9.913399321,9.913399321,0.344213416,0.370577605,31.56649943,32.14341526,15.46133757,13,20,99,104,3.381464179,3
949.0078122,9.963350137,10.12744064,13.63362394,13.64349283,0.285529704,0.263599266,9.918325973,9.918325973,0.344297878,0.370583561,31.56271756,32.14210501,15.46133757,13,20,99,104,3.381464179,3
950.0078122,9.960578938,10.12218949,13.62142441,13.63641281,0.287617247,0.262952674,9.921164759,9.921164759,0.344381509,0.37059225,31.55903249,32.14069199,15.46133757,13,20,99,104,3.381464179,3
951.0078122,9.958244529,10.12030319,13.58651528,13.64032363,0.288759843,0.263015143,9.922398317,9.922398317,0.344469723,0.370595402,31.55536788,32.13930349,15.46133757,13,20,99,104,3.381464179,3
952.0078122,9.956706521,10.12611035,13.56802194,13.65835914,0.288568486,0.264186279,9.923860362,9.923860362,0.344557807,0.370603284,31.5516413,32.13797578,15.52252487,13,20,99,105,3.381464179,3
953.0078122,9.954807766,10.13611333,13.59499905,13.68187359,0.287616485,0.266470728,9.925202228,9.925202228,0.34465294,0.370607521,31.54776643,32.13663211,15.52252487,13,20,99,105,3.381464179,3
954.0078122,9.953268445,10.14244574,13.65482913,13.70959433,0.286914047,0.269057268,9.923990861,9.923990861,0.344753331,0.370611042,31.54383686,32.13523269,15.52252487,13,20,99,105,3.381464179,3
955.0078122,9.954182252,10.14202619,13.7085402,13.74079949,0.287284695,0.270701647,9.920098989,9.920098989,0.344851768,0.370616578,31.53989346,32.13384031,15.52252487,13,20,99,105,3.381464179,3
956.0078122,9.957177231,10.13938844,13.73290755,13.77528516,0.288972134,0.270645684,9.919047658,9.919047658,0.344955022,0.370623971,31.53590859,32.13240326,15.582027,13,20,99,105,3.381464179,3
957.0078122,9.959224544,10.13934723,13.73859247,13.82060691,0.291621527,0.269188852,9.928195557,9.928195557,0.345062258,0.370628728,31.53172466,32.13091332,15.582027,13,20,99,105,3.381464179,3
958.0078122,9.958775224,10.14043801,13.74684581,13.86282573,0.294545747,0.267415523,9.948547369,9.948547369,0.34516475,0.370636686,31.52744778,32.12947337,15.582027,13,20,99,105,3.381464179,3
959.0078122,9.957300881,10.13851676,13.75490643,13.86807474,0.297066105,0.266418879,9.972439282,9.972439282,0.345270729,0.370643595,31.52309818,32.12806692,15.582027,13,20,99,105,3.381464179,3
960.0078122,9.956259776,10.13426199,13.74309791,13.8351229,0.298747834,0.266799274,9.989305326,9.989305326,0.345382971,0.37065374,31.51870606,32.12667734,15.582027,13,20,99,105,3.381464179,3
961.0078122,9.95521814,10.13251216,13.71286353,13.79256503,0.299496018,0.268748474,9.992271505,9.992271505,0.345501763,0.370667413,31.51415477,32.1251868,15.63528701,13,21,99,105,3.381464179,3
962.0078122,9.953514593,10.13586052,13.6833927,13.75708745,0.299524148,0.272285173,9.983454142,9.983454142,0.345628431,0.370678685,31.50945097,32.12368628,15.63528701,13,21,99,105,3.381464179,3
963.0078122,9.952250708,10.14357841,13.66315175,13.7407919,0.299148549,0.277130194,9.970517156,9.970517156,0.345748195,0.370687873,31.50462674,32.12231643,15.63528701,13,21,99,105,3.381464179,3
964.0078122,9.953981629,10.15422011,13.65263039,13.75606967,0.298461171,0.282330427,9.955913634,9.955913634,0.345867589,0.370699386,31.49964258,32.12086852,15.63528701,13,21,99,105,3.381464179,3
965.0078122,9.959731515,10.16548316,13.65698656,13.78725915,0.297178862,0.2862368,9.938605854,9.938605854,0.345991834,0.370709395,31.49447932,32.11933694,15.63528701,13,21,99,105,3.381464179,3
966.0078122,9.966672958,10.17482711,13.67830801,13.80549566,0.294937049,0.287210122,9.921929357,9.921929357,0.346110626,0.370720589,31.48899292,32.11776598,15.67439897,13,21,99,105,3.381464179,3
967.0078122,9.970842481,10.1811686,13.70194187,13.80704264,0.291791217,0.28467027,9.910909457,9.910909457,0.346230177,0.370731793,31.48335216,32.11614655,15.67439897,13,21,99,105,3.381464179,3
968.0078122,9.971629108,10.18362618,13.70349296,13.80766492,0.288353651,0.279613803,9.906770236,9.906770236,0.346349944,0.370739426,31.47731303,32.11457091,15.67439897,13,21,99,105,3.381464179,3
969.0078122,9.971520333,10.18062887,13.66811345,13.81727147,0.285282418,0.274103239,9.908200229,9.908200229,0.34646272,0.370748677,31.47104686,32.11305601,15.67439897,13,21,99,105,3.381464179,3
970.0078122,9.972365794,10.17283207,13.60669156,13.8293172,0.282719754,0.270016443,9.914791419,9.914791419,0.34657863,0.370756835,31.46471715,32.11146168,15.69016381,13,21,99,105,3.381464179,3
971.0078122,9.973674614,10.16461925,13.55440996,13.82621214,0.280345213,0.267954876,9.923754745,9.923754745,0.346696722,0.370763634,31.4582302,32.10978125,15.69016381,13,21,99,105,3.381464179,3
972.0078122,9.974104632,10.16073247,13.53880785,13.79435222,0.277918261,0.267136958,9.92701849,9.92701849,0.346812634,0.370771642,31.45156875,32.10810371,15.69016381,13,21,99,105,3.381464179,3
973.0078122,9.973382895,10.16364504,13.56455744,13.74272389,0.275631428,0.266370479,9.919185056,9.919185056,0.346934955,0.370771058,31.44459331,32.10638159,15.69016381,13,21,99,105,3.381464179,3
974.0078122,9.971888979,10.1721756,13.63655262,13.71246814,0.27396134,0.265191263,9.903955698,9.903955698,0.347046425,0.370776631,31.43744019,32.10465569,15.69016381,13,21,99,105,3.381464179,3
975.0078122,9.969093062,10.18108415,13.76143223,13.75520136,0.273254172,0.264078826,9.888305364,9.888305364,0.347147404,0.370782867,31.43008226,32.10298515,15.67548645,13,21,99,106,3.381464179,3
