Time (s),Waist Acceleration,Chest Acceleration,Left Ankle Acceleration,right Ankle Acceleration,EMG_magnitude_left,EMG_magnitude_right,left wrist Acceleration,right wrist Acceleration,left wrist electrodermal,right wrist electrodermal,left wrist Temperature,right wrist Temperature,VO2,Breath Frequency,Minute Ventilation,SpO2,Heart Rate,Energy expenditures (W/kg) ,Activity Code
360.0078122,9.835492981,9.915314037,9.761947082,9.925540218,0.100366722,0.112299022,9.797712831,9.797712831,0.444994703,0.847256538,29.0484412,29.03921648,7.077885232,22,12,99,78,2.210168496,2
361.0078122,9.835487653,9.915254331,9.76154806,9.925350676,0.09876713,0.104917197,9.797702001,9.797702001,0.445200658,0.847706187,29.04711716,29.03718072,7.077885232,22,12,99,78,2.210168496,2
362.0078122,9.836420162,9.915136046,9.761573569,9.925648836,0.096929329,0.102383259,9.798985053,9.798985053,0.445410822,0.848152455,29.04581906,29.03515835,7.077885232,22,12,99,78,2.210168496,2
363.0078122,9.838629047,9.915144855,9.761885852,9.926502439,0.094841647,0.104859695,9.801054455,9.801054455,0.445612593,0.848594994,29.04444878,29.03321497,7.077885232,22,12,99,78,2.210168496,2
364.0078122,9.841933348,9.915144401,9.764075275,9.930189566,0.093316571,0.110768984,9.803441706,9.803441706,0.445804151,0.849029687,29.04317528,29.03134705,7.077885232,22,12,99,78,2.210168496,2
365.0078122,9.845643628,9.91449891,9.776361478,9.945714096,0.094067142,0.117838,9.806733644,9.806733644,0.445986458,0.849446568,29.04192288,29.02924883,7.132096615,22,12,99,78,2.210168496,2
366.0078122,9.849631801,9.913654847,9.824931294,9.996072606,0.099054335,0.124504896,9.813244566,9.813244566,0.446166956,0.849855144,29.04064562,29.02716459,7.132096615,22,12,99,78,2.210168496,2
367.0078122,9.854612632,9.91622986,9.961146316,10.11966485,0.109344976,0.131018281,9.828080746,9.828080746,0.446334129,0.850245628,29.03937146,29.02518502,7.132096615,22,12,99,78,2.210168496,2
368.0078122,9.86066291,9.927587373,10.23367004,10.35844209,0.124339277,0.139006504,9.859348246,9.859348246,0.446495073,0.8506314,29.0380897,29.02317921,7.23799584,22,13,99,78,2.210168496,2
369.0078122,9.86656019,9.950785139,10.63608932,10.74050965,0.142057864,0.149618546,9.913440227,9.913440227,0.446649468,0.851008678,29.03664198,29.0210895,7.23799584,22,13,99,78,2.210168496,2
370.0078122,9.87170625,9.985103623,11.10675935,11.2575024,0.160068455,0.162156532,9.989162937,9.989162937,0.446784738,0.851372086,29.03529521,29.01904109,7.390736809,22,13,99,79,2.210168496,2
371.0078122,9.876991054,10.02665938,11.57540392,11.83710904,0.176049168,0.174512708,10.08170507,10.08170507,0.446910466,0.851721973,29.03399493,29.0170268,7.390736809,22,13,99,79,2.210168496,2
372.0078122,9.88300573,10.0696443,11.9756167,12.35682563,0.187993379,0.184657822,10.18799946,10.18799946,0.44701785,0.852054689,29.03263454,29.015106,7.390736809,22,13,99,79,2.210168496,2
373.0078122,9.889126148,10.10903879,12.25421008,12.72134503,0.194575131,0.191581951,10.29247409,10.29247409,0.447114932,0.85236808,29.03137259,29.01327657,7.583530743,22,13,99,79,2.210168496,2
374.0078122,9.894428253,10.14112075,12.40942141,12.92197297,0.196008612,0.195563224,10.35655942,10.35655942,0.447197828,0.852654723,29.03024802,29.01138184,7.583530743,22,13,99,79,2.210168496,2
375.0078122,9.898741059,10.16274583,12.48928799,13.00962399,0.194134064,0.197822401,10.35304005,10.35304005,0.447261204,0.852928538,29.02902775,29.00945516,7.583530743,22,13,99,79,2.210168496,2
376.0078122,9.902293181,10.17408887,12.54251859,13.03354062,0.19141439,0.199840039,10.30115714,10.30115714,0.447320623,0.853187864,29.02784312,29.00759347,7.808163862,23,13,99,80,2.210168496,2
377.0078122,9.904043119,10.17890959,12.58473206,13.01848702,0.189689176,0.202606123,10.2433945,10.2433945,0.447366044,0.853431847,29.02666324,29.00575692,7.808163862,23,13,99,80,2.210168496,2
378.0078122,9.902390967,10.18049858,12.60743871,12.97981932,0.189604826,0.206252153,10.20711246,10.20711246,0.447392827,0.85365046,29.02554009,29.00388101,8.055598553,23,14,99,80,2.210168496,2
379.0078122,9.898461736,10.1807254,12.61335021,12.93551787,0.190758335,0.210254967,10.19965255,10.19965255,0.447404173,0.853847956,29.02438637,29.0019448,8.055598553,23,14,99,80,2.210168496,2
380.0078122,9.895834588,10.18094348,12.62989156,12.90430691,0.192210319,0.213930014,10.21778918,10.21778918,0.447400646,0.854029279,29.02321715,29.00014512,8.055598553,23,14,99,80,2.210168496,2
381.0078122,9.89657409,10.18071288,12.68021657,12.89968056,0.193190708,0.216847462,10.24883952,10.24883952,0.447379051,0.854198849,29.02209182,28.99842251,8.316597671,24,14,99,81,2.210168496,2
382.0078122,9.899747618,10.17719533,12.76006621,12.91697357,0.19371859,0.219050707,10.27181021,10.27181021,0.44734915,0.854338974,29.02097264,28.99678013,8.316597671,24,14,99,81,2.210168496,2
383.0078122,9.902979452,10.16976193,12.8513577,12.93503728,0.194637615,0.221054708,10.27145648,10.27145648,0.447301474,0.854465214,29.01993016,28.99522759,8.582313257,24,14,99,81,2.210168496,2
384.0078122,9.904224989,10.16328964,12.93818055,12.93909545,0.196929508,0.223567358,10.25391617,10.25391617,0.447244876,0.854580881,29.01882418,28.9936296,8.582313257,24,14,99,81,2.210168496,2
385.0078122,9.903550112,10.16151532,12.99630791,12.9220836,0.200842756,0.227021306,10.2439587,10.2439587,0.44717304,0.854683079,29.0176384,28.99210916,8.582313257,24,14,99,81,2.210168496,2
386.0078122,9.902871483,10.16195644,12.98436478,12.87874538,0.205446535,0.231135224,10.25969026,10.25969026,0.4470857,0.85477375,29.01651818,28.9906934,8.844789306,24,15,99,82,2.210168496,2
387.0078122,9.902914781,10.16139475,12.87865547,12.82703497,0.208940825,0.234855712,10.28779432,10.28779432,0.446991333,0.854854139,29.01549209,28.98940867,8.844789306,24,15,99,82,2.210168496,2
388.0078122,9.902980626,10.16027264,12.73101869,12.8032434,0.209575519,0.236821139,10.29944064,10.29944064,0.446886518,0.854926343,29.0144816,28.98808501,9.097341557,25,15,99,82,2.210168496,2
389.0078122,9.903335533,10.16019752,12.64880997,12.820106,0.206673863,0.236215041,10.29399388,10.29399388,0.446779142,0.854989532,29.01341622,28.98686965,9.097341557,25,15,99,82,2.210168496,2
390.0078122,9.904289823,10.16175962,12.68149003,12.85625908,0.201052147,0.233475522,10.29714737,10.29714737,0.446662228,0.855037963,29.01230349,28.98570131,9.334793391,25,16,99,83,2.210168496,2
391.0078122,9.904725906,10.16517372,12.76754406,12.88134019,0.194540001,0.230256623,10.306694,10.306694,0.446540831,0.855078405,29.01128155,28.98446417,9.334793391,25,16,99,83,2.210168496,2
392.0078122,9.90394941,10.17027649,12.81469913,12.8747127,0.189020115,0.228490665,10.28402786,10.28402786,0.446402426,0.855112999,29.01032752,28.98320329,9.553563383,25,16,99,83,2.210168496,2
393.0078122,9.902561942,10.17609719,12.79468543,12.83887139,0.185682635,0.229098845,10.21882455,10.21882455,0.446272262,0.855135453,29.00935202,28.98213106,9.553563383,25,16,99,83,2.210168496,2
394.0078122,9.901024753,10.18106059,12.74133235,12.80373998,0.184895425,0.231291234,10.15456745,10.15456745,0.446142432,0.855146674,29.00832752,28.98115213,9.751614968,25,16,99,83,2.210168496,2
395.0078122,9.89957089,10.18309627,12.68416851,12.7969642,0.186581021,0.233097804,10.13301524,10.13301524,0.446001291,0.85515636,29.00731468,28.98024881,9.751614968,25,16,99,83,2.210168496,2
396.0078122,9.898952772,10.18134921,12.62193478,12.81465455,0.190570913,0.232864862,10.15087991,10.15087991,0.445864153,0.855147702,29.00638089,28.97940127,9.928290596,25,17,99,84,2.210168496,2
397.0078122,9.899362494,10.1781265,12.55587572,12.83526222,0.196446623,0.230584028,10.17913533,10.17913533,0.445714617,0.855115032,29.00537804,28.97853772,9.928290596,25,17,99,84,2.210168496,2
398.0078122,9.899708783,10.175692,12.5047658,12.8436668,0.20311361,0.227916131,10.19800242,10.19800242,0.445559936,0.855074191,29.0043985,28.97770991,9.928290596,25,17,99,84,2.210168496,2
399.0078122,9.899485215,10.17230042,12.48378081,12.82927378,0.208819137,0.226908784,10.20344232,10.20344232,0.445391866,0.855037781,29.00345857,28.97703871,10.08406093,26,17,99,84,2.210168496,2
400.0078122,9.8994769,10.16493803,12.49371839,12.77889217,0.212039653,0.228434176,10.19764984,10.19764984,0.44522461,0.855009969,29.00249843,28.97650996,10.08406093,26,17,99,84,2.210168496,2
401.0078122,9.899892539,10.15301686,12.52203406,12.69140547,0.212339036,0.231547163,10.18391523,10.18391523,0.445064402,0.854984785,29.00157463,28.97602315,10.22022384,26,17,99,84,2.210168496,2
402.0078122,9.899790438,10.13879,12.54705507,12.59687619,0.210365794,0.234127771,10.1644621,10.1644621,0.444916782,0.854967417,29.00056217,28.97565173,10.22022384,26,17,99,84,2.210168496,2
403.0078122,9.898826688,10.12706024,12.5522462,12.53955558,0.207231001,0.234325275,10.13972972,10.13972972,0.444773568,0.854956932,28.99954441,28.9753689,10.3385885,26,17,99,84,2.210168496,2
404.0078122,9.898127567,10.12220607,12.54085904,12.53164893,0.204014587,0.231747407,10.11022694,10.11022694,0.444637294,0.854915117,28.9985554,28.97506897,10.3385885,26,17,99,84,2.210168496,2
405.0078122,9.898807237,10.12403554,12.53168841,12.54403104,0.201510367,0.227439618,10.07943138,10.07943138,0.444496203,0.854885082,28.99756303,28.97484353,10.44117702,26,17,99,84,2.210168496,2
406.0078122,9.900573085,10.12792378,12.53855517,12.5449536,0.199953984,0.22277879,10.05446862,10.05446862,0.444367702,0.854866312,28.99661793,28.97466221,10.44117702,26,17,99,84,2.210168496,2
407.0078122,9.901991743,10.12933355,12.56177073,12.53003018,0.198901829,0.218465159,10.0442424,10.0442424,0.444250887,0.854865868,28.99563139,28.9744776,10.44117702,26,17,99,84,2.210168496,2
408.0078122,9.901437059,10.1297623,12.59937205,12.52791978,0.197576024,0.21447424,10.05673629,10.05673629,0.444132565,0.854864641,28.99459713,28.97447031,10.52997078,26,18,99,84,2.210168496,2
409.0078122,9.898173393,10.13577889,12.65493248,12.57160708,0.195473231,0.210618971,10.09089627,10.09089627,0.444015417,0.854862076,28.99360233,28.97447454,10.52997078,26,18,99,84,2.210168496,2
410.0078122,9.893467301,10.14912662,12.72644772,12.64902269,0.19271558,0.20692747,10.13272841,10.13272841,0.443904038,0.854862225,28.9928403,28.97452353,10.60672116,26,18,99,84,2.210168496,2
411.0078122,9.889547246,10.16326065,12.79853099,12.72325989,0.189943238,0.203638507,10.17196393,10.17196393,0.443792234,0.85486987,28.99200004,28.9746202,10.60672116,26,18,99,84,2.210168496,2
412.0078122,9.887087108,10.17195543,12.85143179,12.79257275,0.187968489,0.201065029,10.21405938,10.21405938,0.44369342,0.854886049,28.99115969,28.97483232,10.67283539,26,18,99,84,2.210168496,2
413.0078122,9.885502312,10.17534269,12.86664217,12.87508318,0.187527324,0.199500666,10.26509054,10.26509054,0.443601989,0.854903071,28.9902568,28.97503851,10.67283539,26,18,99,84,2.210168496,2
414.0078122,9.884825308,10.17660702,12.84239652,12.96602828,0.189094129,0.199075344,10.31750312,10.31750312,0.443509253,0.854927579,28.98931591,28.97530428,10.67283539,26,18,99,84,2.210168496,2
415.0078122,9.885476399,10.17726224,12.80724221,13.03811975,0.192640392,0.199667315,10.35597629,10.35597629,0.443429495,0.854941953,28.98837313,28.97562077,10.72933974,26,18,99,84,2.210168496,2
416.0078122,9.886824412,10.17707983,12.78997549,13.05841859,0.19734502,0.200875093,10.37087825,10.37087825,0.443349062,0.854952161,28.98750259,28.97607192,10.72933974,26,18,99,84,2.210168496,2
417.0078122,9.888036955,10.176998,12.78837489,13.01539626,0.201633622,0.202009984,10.36391258,10.36391258,0.443271712,0.854965602,28.98655964,28.97660258,10.77691279,26,18,99,84,2.210168496,2
418.0078122,9.890284774,10.1780692,12.7754828,12.937955,0.203838042,0.202242867,10.34500482,10.34500482,0.443203545,0.854968399,28.98570747,28.97708147,10.77691279,26,18,99,84,2.210168496,2
419.0078122,9.894820756,10.17780279,12.73478415,12.86967203,0.203118183,0.201074142,10.32532014,10.32532014,0.443130721,0.85497452,28.98479593,28.97762964,10.77691279,26,18,99,84,2.210168496,2
420.0078122,9.899770015,10.17467964,12.69607241,12.83819611,0.199835954,0.198834652,10.30921445,10.30921445,0.443061747,0.854993051,28.98394032,28.97818989,10.81597502,26,18,99,83,2.210168496,2
421.0078122,9.902567606,10.17567064,12.7051429,12.85804035,0.195044995,0.196609269,10.29486292,10.29486292,0.44299533,0.855000079,28.98300915,28.9788088,10.81597502,26,18,99,83,2.210168496,2
422.0078122,9.903674884,10.18895388,12.75344283,12.92088098,0.18968261,0.195468993,10.2766682,10.2766682,0.442923057,0.855005325,28.98211887,28.97952189,10.84681546,26,18,99,83,2.210168496,2
423.0078122,9.904842855,10.20785278,12.78685588,12.97746233,0.184263384,0.195665659,10.24428719,10.24428719,0.44286072,0.855011767,28.98123328,28.98023654,10.84681546,26,18,99,83,2.210168496,2
424.0078122,9.906126683,10.21348169,12.77845496,12.98069738,0.179162534,0.196529261,10.20198955,10.20198955,0.442797603,0.855015585,28.98032483,28.98098165,10.86973387,26,18,99,83,2.210168496,2
425.0078122,9.90664262,10.19820518,12.74146248,12.94328786,0.174891808,0.197156211,10.18755925,10.18755925,0.442727475,0.85501737,28.97947714,28.98180074,10.86973387,26,18,99,83,2.210168496,2
426.0078122,9.90564943,10.17731246,12.68537256,12.91394107,0.172043198,0.19725373,10.22897024,10.22897024,0.442665089,0.855012889,28.97855415,28.98267082,10.88517747,25,18,99,83,2.210168496,2
427.0078122,9.902504606,10.17039296,12.60983174,12.91600638,0.170954958,0.197419159,10.28469331,10.28469331,0.442596984,0.85501047,28.97767377,28.98354042,10.88517747,25,18,99,83,2.210168496,2
428.0078122,9.897719565,10.17800155,12.53383469,12.93303917,0.171525342,0.198620638,10.28876008,10.28876008,0.442525932,0.855002094,28.97677913,28.9843838,10.89385368,25,18,99,83,2.210168496,2
429.0078122,9.893376768,10.18457023,12.4878706,12.93459305,0.173237603,0.201371946,10.24350067,10.24350067,0.442459252,0.854986718,28.97592259,28.98526407,10.89385368,25,18,99,83,2.210168496,2
430.0078122,9.890897168,10.17966576,12.47062114,12.90020334,0.17531357,0.205339763,10.19848234,10.19848234,0.442394929,0.854976008,28.97506278,28.98619484,10.89385368,25,18,99,83,2.210168496,2
431.0078122,9.889437166,10.1679976,12.45366548,12.82788796,0.176985308,0.209675017,10.1744223,10.1744223,0.44232713,0.854957291,28.97424706,28.98704608,10.89680525,25,18,99,83,2.210168496,2
432.0078122,9.887995911,10.16119757,12.44388053,12.74279473,0.177840334,0.213644864,10.16667968,10.16667968,0.442258818,0.854925537,28.97348535,28.98789357,10.89680525,25,18,99,83,2.210168496,2
433.0078122,9.887285577,10.16526969,12.48092317,12.69582917,0.177966514,0.216917394,10.1775982,10.1775982,0.44218196,0.854897601,28.97271509,28.98881218,10.89543887,25,18,99,82,2.210168496,2
434.0078122,9.888306352,10.17307664,12.56027086,12.7212491,0.177709119,0.219340084,10.20761272,10.20761272,0.442109979,0.854874138,28.97190118,28.98980033,10.89543887,25,18,99,82,2.210168496,2
435.0078122,9.890983144,10.17113818,12.64012283,12.7900283,0.177306692,0.220644597,10.24524722,10.24524722,0.442042657,0.854846614,28.97111459,28.99090878,10.891504,25,18,99,82,2.210168496,2
436.0078122,9.893914432,10.15620983,12.70932664,12.83450387,0.176809673,0.220533018,10.27943356,10.27943356,0.441968461,0.854814361,28.97033275,28.99196044,10.891504,25,18,99,82,2.210168496,2
437.0078122,9.895254828,10.1386464,12.77063791,12.83358773,0.176277177,0.219082068,10.30294886,10.30294886,0.44188584,0.854771095,28.96960983,28.9929778,10.88702307,25,18,99,82,2.210168496,2
438.0078122,9.895032152,10.13032846,12.79895007,12.84301129,0.1758918,0.216970491,10.31142833,10.31142833,0.441822188,0.854727772,28.96889143,28.99401868,10.88702307,25,18,99,82,2.210168496,2
439.0078122,9.895032929,10.13456485,12.77562613,12.91140236,0.175805892,0.215251417,10.31288517,10.31288517,0.44174969,0.854684355,28.96822707,28.99516958,10.88702307,25,18,99,82,2.210168496,2
440.0078122,9.896185871,10.14626753,12.73053436,13.01276595,0.175920716,0.214802697,10.32028756,10.32028756,0.441677623,0.854635494,28.9676095,28.99629536,10.88417839,25,18,99,82,2.210168496,2
441.0078122,9.897691738,10.15845633,12.70835143,13.09671085,0.175927568,0.215828403,10.32995811,10.32995811,0.441608128,0.854579849,28.96696264,28.99740369,10.88417839,25,18,99,82,2.210168496,2
442.0078122,9.898476109,10.16635877,12.71407773,13.13771972,0.175597144,0.217677304,10.32769891,10.32769891,0.441531685,0.854529859,28.96630859,28.99852528,10.88417839,25,18,99,82,2.210168496,2
443.0078122,9.898332612,10.16672363,12.71799447,13.11407408,0.174988654,0.219154003,10.31052198,10.31052198,0.441452226,0.854474854,28.96558683,28.99962986,10.88516446,25,18,99,82,2.210168496,2
444.0078122,9.897476281,10.15795694,12.69332866,13.02157324,0.174373908,0.219246921,10.28658783,10.28658783,0.441379848,0.854422263,28.9649415,29.00077449,10.88516446,25,18,99,82,2.210168496,2
445.0078122,9.895926148,10.14240346,12.63723562,12.91485779,0.174025892,0.217789026,10.26220184,10.26220184,0.441300064,0.8543805,28.96442165,29.00189714,10.89201748,25,18,99,82,2.210168496,2
446.0078122,9.893609851,10.12625262,12.57011606,12.8573645,0.174113131,0.215511156,10.23692176,10.23692176,0.441221782,0.854333239,28.96405425,29.00300654,10.89201748,25,18,99,82,2.210168496,2
447.0078122,9.890882942,10.11617681,12.52164323,12.84237411,0.174744773,0.213430208,10.21002443,10.21002443,0.44112863,0.854290005,28.96363208,29.00401309,10.89201748,25,18,99,82,2.210168496,2
448.0078122,9.88916005,10.11490891,12.51030604,12.82321025,0.176043363,0.212040813,10.18408143,10.18408143,0.441045659,0.854241419,28.96311404,29.00504876,10.89201748,25,18,99,82,2.210168496,2
449.0078122,9.889691898,10.11950911,12.52989802,12.78885039,0.178096742,0.210958895,10.15824676,10.15824676,0.440955833,0.85418893,28.96264193,29.00617229,10.90643669,25,18,99,82,2.210168496,2
450.0078122,9.890988235,10.12608857,12.56946543,12.76295066,0.180731493,0.209384107,10.1311142,10.1311142,0.440860734,0.854136055,28.96218916,29.00725952,10.90643669,25,18,99,82,2.210168496,2
451.0078122,9.88989639,10.13475824,12.63554882,12.75873698,0.183305165,0.206974822,10.11109769,10.11109769,0.440767648,0.854085283,28.96173366,29.00834055,10.90643669,25,18,99,82,2.210168496,2
452.0078122,9.885893471,10.14682794,12.71884534,12.76875954,0.184826927,0.204227214,10.10762602,10.10762602,0.44067459,0.854044164,28.96128138,29.00948586,10.92961469,25,18,99,82,2.210168496,2
453.0078122,9.881903581,10.16019848,12.77024218,12.78235286,0.184568813,0.201975276,10.1135389,10.1135389,0.440593406,0.854004307,28.96106679,29.01060288,10.92961469,25,18,99,82,2.210168496,2
454.0078122,9.880733936,10.17044454,12.7581274,12.79272792,0.182704343,0.200724696,10.1119099,10.1119099,0.440498164,0.85397877,28.96089811,29.01164323,10.92961469,25,18,99,82,2.210168496,2
455.0078122,9.882740117,10.17491297,12.71265406,12.7940547,0.18038349,0.200510315,10.09769693,10.09769693,0.440410077,0.853955577,28.96073565,29.01275089,10.96209503,25,18,99,81,2.210168496,2
456.0078122,9.886551237,10.17348377,12.67791555,12.78045545,0.179074619,0.201105167,10.07848649,10.07848649,0.440327192,0.853946922,28.96056778,29.01380779,10.96209503,25,18,99,81,2.210168496,2
457.0078122,9.890344327,10.16560837,12.65940116,12.75062168,0.179632994,0.202130131,10.05986896,10.05986896,0.440248758,0.853939129,28.96042173,29.01496997,11.00367547,25,18,99,81,2.210168496,2
458.0078122,9.892574825,10.15168908,12.64091083,12.71419453,0.181800781,0.20313564,10.04288045,10.04288045,0.440173428,0.853927937,28.96034374,29.0161023,11.00367547,25,18,99,81,2.210168496,2
459.0078122,9.892691097,10.13698846,12.61667218,12.68407652,0.18453231,0.203910295,10.0315358,10.0315358,0.440103296,0.853920071,28.96025116,29.01716678,11.0533722,25,18,99,81,2.210168496,2
460.0078122,9.891599174,10.12692182,12.58475275,12.65649024,0.186883901,0.204753685,10.03199117,10.03199117,0.440032883,0.85392033,28.96015489,29.01829917,11.0533722,25,18,99,81,2.210168496,2
461.0078122,9.890813185,10.1207818,12.53523244,12.61740102,0.18867684,0.206233829,10.0426465,10.0426465,0.43995619,0.853925865,28.96011964,29.01947627,11.0533722,25,18,99,81,2.210168496,2
462.0078122,9.890979097,10.11692989,12.47137455,12.57969981,0.190286714,0.208597418,10.05251187,10.05251187,0.439880379,0.853943694,28.96005927,29.02054002,11.10945501,25,18,99,81,2.210168496,2
463.0078122,9.891278487,10.11836358,12.422306,12.57961837,0.191818872,0.211521013,10.0543638,10.0543638,0.439815437,0.853955902,28.95999436,29.02160179,11.10945501,25,18,99,81,2.210168496,2
464.0078122,9.890687211,10.12680111,12.411194,12.62172162,0.192714788,0.214444028,10.05426453,10.05426453,0.439747633,0.853989036,28.95996223,29.02266025,11.16955573,25,18,99,81,2.210168496,2
465.0078122,9.889633708,10.1377166,12.43100159,12.66447519,0.192333118,0.216979179,10.06166016,10.06166016,0.439679522,0.854024334,28.96002287,29.02371408,11.16955573,25,18,99,81,2.210168496,2
466.0078122,9.889192128,10.14472958,12.46488648,12.67367123,0.190798578,0.219048186,10.07560846,10.07560846,0.439616006,0.854063927,28.96003145,29.02478388,11.23084287,25,19,99,81,2.210168496,2
467.0078122,9.889674994,10.14505943,12.5089338,12.66808816,0.188982208,0.220684045,10.08789957,10.08789957,0.439546372,0.854113814,28.96007312,29.02588392,11.23084287,25,19,99,81,2.210168496,2
468.0078122,9.890921378,10.14093845,12.5621792,12.69156658,0.187666303,0.221752361,10.09456492,10.09456492,0.439485122,0.854173038,28.9602133,29.02693067,11.29024631,26,19,99,81,2.210168496,2
469.0078122,9.892349865,10.13685485,12.60884646,12.7418298,0.186948827,0.221955475,10.096664,10.096664,0.439425769,0.854243647,28.96028017,29.0279853,11.29024631,26,19,99,81,2.210168496,2
470.0078122,9.893105961,10.1354735,12.63175673,12.77045279,0.186452552,0.221202877,10.09052831,10.09052831,0.43937624,0.854320228,28.96030508,29.02901909,11.29024631,26,19,99,81,2.210168496,2
471.0078122,9.893588187,10.13702463,12.63800503,12.75807968,0.185837605,0.219797984,10.06856247,10.06856247,0.439336993,0.854398639,28.96037775,29.03001497,11.34470887,26,19,99,81,2.210168496,2
472.0078122,9.89526109,10.13975305,12.64463202,12.73396135,0.184969916,0.218049845,10.037513,10.037513,0.439293212,0.854488548,28.96048808,29.0310582,11.34470887,26,19,99,81,2.210168496,2
473.0078122,9.898092702,10.14256297,12.65647175,12.73534141,0.183772287,0.215907473,10.02336272,10.02336272,0.439250863,0.854578034,28.9605572,29.03216845,11.39143757,26,19,99,80,2.210168496,2
474.0078122,9.900138474,10.15230265,12.68291271,12.78723084,0.182171726,0.213279849,10.04654536,10.04654536,0.43920111,0.854665962,28.96069396,29.0332083,11.39143757,26,19,99,80,2.210168496,2
475.0078122,9.900023892,10.17632961,12.72947182,12.88155325,0.180265878,0.210546264,10.09693287,10.09693287,0.439150304,0.854760574,28.96089656,29.03413173,11.42812762,26,19,99,80,2.210168496,2
476.0078122,9.898799507,10.2026062,12.76238763,12.95532938,0.178455964,0.208372069,10.14000862,10.14000862,0.439100814,0.854858491,28.96104389,29.03504938,11.42812762,26,19,99,80,2.210168496,2
477.0078122,9.898400911,10.20768711,12.73596365,12.94868192,0.177328773,0.20704147,10.1518887,10.1518887,0.439049897,0.854966987,28.96115616,29.03595923,11.45313673,26,19,99,80,2.210168496,2
478.0078122,9.898784194,10.18805951,12.651795,12.87341625,0.17732565,0.206260413,10.14239061,10.14239061,0.439001269,0.855076848,28.96124068,29.03692683,11.45313673,26,19,99,80,2.210168496,2
479.0078122,9.898056012,10.16221805,12.55503764,12.7860416,0.178420776,0.205622499,10.13324556,10.13324556,0.438958559,0.855182396,28.96139537,29.03797411,11.45313673,26,19,99,80,2.210168496,2
480.0078122,9.895432794,10.1445271,12.48989079,12.72612621,0.180041951,0.204950774,10.12646615,10.12646615,0.438912713,0.855287462,28.96156788,29.03895081,11.46559465,26,19,99,80,2.210168496,2
481.0078122,9.892178054,10.13523297,12.47888403,12.69503161,0.181441656,0.204154335,10.11352042,10.11352042,0.438878806,0.855394388,28.96168022,29.03992549,11.46559465,26,19,99,80,2.210168496,2
482.0078122,9.889444568,10.13014952,12.51698818,12.67479135,0.182320992,0.203067882,10.10212564,10.10212564,0.438828999,0.855500384,28.96179842,29.04085142,11.46544202,26,19,99,80,2.210168496,2
483.0078122,9.887043818,10.12730654,12.57309562,12.66578478,0.183051296,0.201629336,10.11080319,10.11080319,0.438779418,0.855596631,28.96186873,29.04171927,11.46544202,26,19,99,80,2.210168496,2
484.0078122,9.884834256,10.12768386,12.61673184,12.69161012,0.184055402,0.200043766,10.14502632,10.14502632,0.438732866,0.855697702,28.96194594,29.04254839,11.45340154,26,19,99,80,2.210168496,2
485.0078122,9.88371948,10.1340054,12.63855428,12.76180657,0.184958434,0.198561365,10.19342481,10.19342481,0.438685833,0.855792094,28.96198095,29.04334327,11.45340154,26,19,99,80,2.210168496,2
486.0078122,9.884479352,10.14616889,12.64400303,12.84344647,0.184676624,0.197131408,10.2385621,10.2385621,0.438635661,0.855883752,28.96195757,29.04424763,11.43089143,26,19,99,80,2.210168496,2
487.0078122,9.886509927,10.15865137,12.65016376,12.87748928,0.182586419,0.195460135,10.26752205,10.26752205,0.438592426,0.855964587,28.96200324,29.0450311,11.43089143,26,19,99,80,2.210168496,2
488.0078122,9.887938476,10.16618279,12.67741983,12.84425236,0.179464039,0.19349945,10.28151683,10.28151683,0.438545156,0.85604592,28.96210921,29.04586289,11.43089143,26,19,99,80,2.210168496,2
489.0078122,9.887466813,10.16908008,12.71718862,12.79302118,0.17704121,0.191786569,10.28973875,10.28973875,0.438497043,0.856125945,28.96213167,29.04672324,11.39989553,26,19,99,79,2.210168496,2
490.0078122,9.885918003,10.16977376,12.73038271,12.77781446,0.176619848,0.191146512,10.2950413,10.2950413,0.438443949,0.856213705,28.96204376,29.04752271,11.39989553,26,19,99,79,2.210168496,2
491.0078122,9.885118935,10.16887529,12.70089761,12.81059998,0.178166158,0.191996576,10.29341516,10.29341516,0.438399235,0.856317361,28.96190395,29.04829813,11.36280571,26,19,99,79,2.210168496,2
492.0078122,9.88622739,10.16574118,12.66143013,12.88209911,0.180662837,0.193972745,10.27724968,10.27724968,0.438373041,0.856420267,28.96167969,29.04907772,11.36280571,26,19,99,79,2.210168496,2
493.0078122,9.889172272,10.15866717,12.64602032,12.96461279,0.183182141,0.196217815,10.24058149,10.24058149,0.438342546,0.856518851,28.96147983,29.04982633,11.32225138,26,19,99,79,2.210168496,2
494.0078122,9.892685214,10.14633054,12.64494176,13.00906701,0.185532897,0.197998758,10.1890262,10.1890262,0.438310799,0.856609567,28.96131701,29.05057509,11.32225138,26,19,99,79,2.210168496,2
495.0078122,9.89508115,10.13115804,12.62706152,12.98359606,0.187895209,0.199073622,10.13861588,10.13861588,0.438278693,0.856705674,28.96105151,29.05131816,11.28092796,26,19,99,79,2.210168496,2
496.0078122,9.895567687,10.1191395,12.58317266,12.90273577,0.190030126,0.199622911,10.10380534,10.10380534,0.438243698,0.856797995,28.96078543,29.05210613,11.28092796,26,19,99,79,2.210168496,2
497.0078122,9.894608466,10.11531692,12.52748909,12.81301507,0.191114273,0.200024368,10.09073973,10.09073973,0.438215958,0.856898637,28.96058488,29.05282652,11.28092796,26,19,99,79,2.210168496,2
498.0078122,9.89305701,10.12009235,12.48005105,12.75907042,0.190439203,0.200757461,10.09806424,10.09806424,0.43818919,0.857000415,28.96030082,29.05347843,11.24143404,25,19,99,78,2.210168496,2
499.0078122,9.891574772,10.1306046,12.46420898,12.76637212,0.188122746,0.202308894,10.1174756,10.1174756,0.43817255,0.857092136,28.96004895,29.05408622,11.24143404,25,19,99,78,2.210168496,2
500.0078122,9.890829817,10.14327967,12.50176672,12.83899372,0.185035943,0.204779497,10.1347551,10.1347551,0.438156582,0.857184802,28.95976858,29.05477221,11.20612402,25,19,99,78,2.210168496,2
501.0078122,9.891018812,10.15470787,12.59858693,12.95037466,0.182172236,0.207407383,10.14018559,10.14018559,0.438140069,0.857280593,28.95953038,29.05547946,11.20612402,25,19,99,78,2.210168496,2
502.0078122,9.891078428,10.16454433,12.72862112,13.06124987,0.180161463,0.208742624,10.14134079,10.14134079,0.438130598,0.857368667,28.95932277,29.05615,11.20612402,25,19,99,78,2.210168496,2
503.0078122,9.889966071,10.17562601,12.84312118,13.16007117,0.179152012,0.207686012,10.15334699,10.15334699,0.43812332,0.857453708,28.95907585,29.0569364,11.17698238,25,19,99,78,2.210168496,2
504.0078122,9.888058748,10.18629381,12.91207259,13.24414265,0.178873919,0.204436623,10.17549374,10.17549374,0.438114361,0.857527675,28.9588045,29.05768681,11.17698238,25,19,99,78,2.210168496,2
505.0078122,9.886466114,10.18873171,12.93462033,13.27787594,0.178821255,0.200330407,10.19178649,10.19178649,0.438112291,0.857595345,28.95846583,29.05836705,11.15552499,26,19,99,78,2.210168496,2
506.0078122,9.885946007,10.18011198,12.91553985,13.23024981,0.1785273,0.196771267,10.19097641,10.19097641,0.438109826,0.857659095,28.9580854,29.05905609,11.15552499,26,19,99,78,2.210168496,2
507.0078122,9.886518416,10.16689012,12.86548684,13.12973747,0.177773034,0.194396543,10.17603196,10.17603196,0.438119154,0.857721995,28.95762481,29.05981785,11.15552499,26,19,99,78,2.210168496,2
508.0078122,9.887850468,10.1561528,12.81298519,13.03672221,0.176577277,0.193081805,10.16189007,10.16189007,0.438114816,0.857784399,28.95725637,29.06053788,11.14273265,26,19,99,78,2.210168496,2
509.0078122,9.889449124,10.15067551,12.78303764,12.98547355,0.175130042,0.192399663,10.17092729,10.17092729,0.438117345,0.857849471,28.95694912,29.06118674,11.14273265,26,19,99,78,2.210168496,2
510.0078122,9.890850568,10.15091447,12.76744101,12.97901372,0.173879491,0.191951314,10.21610971,10.21610971,0.438122496,0.857914202,28.95663562,29.06179179,11.13902149,26,19,99,78,2.210168496,2
511.0078122,9.891876083,10.15478505,12.7416776,13.00566798,0.173586168,0.191486776,10.27735106,10.27735106,0.438131275,0.857985896,28.95631798,29.0624807,11.13902149,26,19,99,78,2.210168496,2
512.0078122,9.891965719,10.1567174,12.70167291,13.04086319,0.174936623,0.19100989,10.31214599,10.31214599,0.438142309,0.858047476,28.95599824,29.06317715,11.1442526,26,19,99,78,2.210168496,2
513.0078122,9.890692057,10.1525404,12.66569635,13.06575722,0.177808258,0.190826859,10.30270136,10.30270136,0.4381481,0.858110387,28.95568035,29.06373704,11.1442526,26,19,99,78,2.210168496,2
514.0078122,9.889426597,10.14477418,12.65657374,13.09229005,0.180962399,0.191332365,10.27631043,10.27631043,0.438162276,0.858158141,28.95529776,29.0643437,11.1442526,26,19,99,78,2.210168496,2
515.0078122,9.890460264,10.13943595,12.68883855,13.14422651,0.182737744,0.192618599,10.26615808,10.26615808,0.438172447,0.858206796,28.95499207,29.06497993,11.15778031,26,19,99,78,2.210168496,2
516.0078122,9.893709624,10.13909646,12.75554714,13.20743857,0.18222059,0.194291859,10.26958659,10.26958659,0.438183115,0.858246666,28.95463144,29.06565463,11.15778031,26,19,99,78,2.210168496,2
517.0078122,9.896366696,10.14291274,12.82841912,13.23092874,0.179759817,0.195709612,10.26073911,10.26073911,0.438182325,0.858285646,28.95428617,29.06631121,11.17853375,26,19,99,78,2.210168496,2
518.0078122,9.896759701,10.14978587,12.87297311,13.18523055,0.1764831,0.196371091,10.22857194,10.22857194,0.438174349,0.858328964,28.95393493,29.06692936,11.17853375,26,19,99,78,2.210168496,2
519.0078122,9.895822718,10.15729257,12.87078047,13.09066929,0.17351541,0.196125033,10.18915948,10.18915948,0.438167381,0.858375453,28.95358449,29.06749953,11.20512222,26,19,99,78,2.210168496,2
520.0078122,9.894278948,10.16230521,12.84927347,12.99551301,0.17161198,0.19508794,10.16796638,10.16796638,0.438166695,0.85842565,28.95333498,29.06804077,11.20512222,26,19,99,78,2.210168496,2
521.0078122,9.891428967,10.16401337,12.85958527,12.93925348,0.171114734,0.193497264,10.17752264,10.17752264,0.438171344,0.858472477,28.95297345,29.06858106,11.20512222,26,19,99,78,2.210168496,2
522.0078122,9.887628586,10.16243967,12.89890779,12.92747957,0.171817841,0.191646127,10.2119003,10.2119003,0.438167002,0.858507792,28.95268205,29.06923266,11.23595126,26,19,99,78,2.210168496,2
523.0078122,9.88545316,10.15673588,12.91582763,12.94183534,0.172856847,0.189827438,10.25475516,10.25475516,0.438158938,0.858539503,28.95253469,29.06983587,11.23595126,26,19,99,78,2.210168496,2
524.0078122,9.887167872,10.14812835,12.89585543,12.96509725,0.173128799,0.188247393,10.28825646,10.28825646,0.438142402,0.858574914,28.95239291,29.0704268,11.2693349,26,19,99,78,2.210168496,2
525.0078122,9.892148927,10.14176548,12.86692603,12.99384802,0.172152688,0.187034706,10.30501791,10.30501791,0.438132514,0.858596603,28.9522355,29.07105478,11.2693349,26,19,99,78,2.210168496,2
526.0078122,9.897790796,10.14296109,12.84691287,13.03699182,0.170458628,0.186345583,10.31735673,10.31735673,0.438112414,0.858611051,28.95204742,29.07167561,11.3035914,26,19,99,79,2.210168496,2
527.0078122,9.902667606,10.15038643,12.84343965,13.09758432,0.168973037,0.186300668,10.33956851,10.33956851,0.438083761,0.858614949,28.95191328,29.07228825,11.3035914,26,19,99,79,2.210168496,2
528.0078122,9.906707518,10.1555652,12.86378592,13.15453717,0.16809769,0.186682243,10.36076623,10.36076623,0.438046778,0.858611091,28.95177205,29.07291564,11.3371139,26,19,99,79,2.210168496,2
529.0078122,9.908723278,10.15274772,12.88656021,13.17450713,0.167490123,0.186838181,10.35561704,10.35561704,0.4379973,0.858600009,28.95170097,29.07352795,11.3371139,26,19,99,79,2.210168496,2
530.0078122,9.907018734,10.14665586,12.871262,13.1499722,0.166583991,0.186183382,10.31517414,10.31517414,0.437941159,0.858583219,28.95161132,29.07410335,11.36841418,26,19,99,79,2.210168496,2
531.0078122,9.902207798,10.14716188,12.81380286,13.11087843,0.16510333,0.184893623,10.24920217,10.24920217,0.437874297,0.858572913,28.95149477,29.07474718,11.36841418,26,19,99,79,2.210168496,2
532.0078122,9.897339825,10.15882084,12.74494297,13.08818427,0.163150625,0.183986888,10.17402107,10.17402107,0.43779849,0.858548869,28.95141533,29.07525652,11.39614464,26,19,99,79,2.210168496,2
533.0078122,9.89510324,10.17667056,12.68447843,13.08151746,0.161073062,0.1845972,10.10796453,10.10796453,0.437721814,0.858529396,28.95145513,29.0757132,11.39614464,26,19,99,79,2.210168496,2
534.0078122,9.895394098,10.18948678,12.62865844,13.06181541,0.159428532,0.18713058,10.0602117,10.0602117,0.437640561,0.858507527,28.9514852,29.07618603,11.41910961,26,19,99,80,2.210168496,2
535.0078122,9.89640252,10.18912786,12.56430851,12.99713943,0.158974291,0.191011284,10.02963383,10.02963383,0.437549103,0.858479707,28.95143923,29.07675158,11.41910961,26,19,99,80,2.210168496,2
536.0078122,9.896947615,10.17914954,12.49183259,12.89118434,0.160399402,0.195071488,10.02045509,10.02045509,0.437459388,0.858442127,28.95146616,29.07735364,11.41910961,26,19,99,80,2.210168496,2
537.0078122,9.896279082,10.17035272,12.43921936,12.79038483,0.163789929,0.198171624,10.03709361,10.03709361,0.437359541,0.858394773,28.95149608,29.07789887,11.43628023,26,19,99,80,2.210168496,2
538.0078122,9.894049451,10.16752188,12.43147247,12.73351667,0.168269169,0.19968688,10.06655079,10.06655079,0.437242725,0.858342323,28.95155249,29.0784089,11.43628023,26,19,99,80,2.210168496,2
539.0078122,9.891496653,10.16662473,12.45549244,12.71766648,0.172316847,0.199677823,10.08579094,10.08579094,0.437122662,0.858291491,28.95160595,29.07889249,11.44682602,26,19,99,80,2.210168496,2
540.0078122,9.890513348,10.16426285,12.48682991,12.7253594,0.174692309,0.198656165,10.0814138,10.0814138,0.436986822,0.858236827,28.95170446,29.0793358,11.44682602,26,19,99,80,2.210168496,2
541.0078122,9.891481502,10.16129048,12.52671825,12.74509168,0.175213687,0.197089452,10.05496897,10.05496897,0.436841643,0.858176062,28.95188503,29.07972529,11.44682602,26,19,99,80,2.210168496,2
542.0078122,9.893044739,10.15788145,12.58296352,12.75767798,0.174708865,0.195105529,10.02127777,10.02127777,0.436694789,0.858113484,28.95201097,29.08013046,11.45017094,26,19,99,80,2.210168496,2
543.0078122,9.893977437,10.15191208,12.636084,12.74405382,0.174277219,0.192707224,10.0048529,10.0048529,0.436548531,0.858045209,28.95205884,29.08058268,11.45017094,26,19,99,80,2.210168496,2
544.0078122,9.894614139,10.14192968,12.64665224,12.71565653,0.174629129,0.190148923,10.02432096,10.02432096,0.436400167,0.857976816,28.95222312,29.08110922,11.44607365,26,19,99,80,2.210168496,2
545.0078122,9.895725404,10.13040381,12.6026226,12.70745236,0.175973031,0.18793451,10.07591747,10.07591747,0.436242043,0.857900625,28.95244209,29.08163021,11.44607365,26,19,99,80,2.210168496,2
546.0078122,9.896812728,10.12363044,12.54508604,12.73917165,0.178157284,0.186377821,10.13532732,10.13532732,0.436074254,0.857820947,28.95267305,29.08202804,11.43472136,26,19,99,80,2.210168496,2
547.0078122,9.896319597,10.12553932,12.52294847,12.79935385,0.180674562,0.18531349,10.17475467,10.17475467,0.4359066,0.857739858,28.95291638,29.08232236,11.43472136,26,19,99,80,2.210168496,2
548.0078122,9.893335481,10.13185614,12.54239952,12.85547364,0.182690127,0.184281115,10.1811529,10.1811529,0.435745511,0.857659362,28.95310481,29.08268572,11.41681808,26,19,99,80,2.210168496,2
549.0078122,9.889251788,10.13485583,12.58056308,12.87644191,0.183470312,0.182952435,10.16141638,10.16141638,0.435571624,0.857580607,28.95321468,29.08301887,11.41681808,26,19,99,80,2.210168496,2
550.0078122,9.886886916,10.13208114,12.61460695,12.86221067,0.182956535,0.181425902,10.1318716,10.1318716,0.4354012,0.857483221,28.95341638,29.08336957,11.41681808,26,19,99,80,2.210168496,2
551.0078122,9.88783301,10.12612546,12.62576497,12.84313418,0.181772826,0.180238254,10.10697081,10.10697081,0.435222448,0.857366648,28.95360934,29.083707,11.3936425,25,19,99,80,2.210168496,2
552.0078122,9.892440128,10.12048478,12.61291475,12.84036625,0.180579295,0.180082552,10.08916389,10.08916389,0.435028514,0.857262782,28.95374582,29.08396167,11.3936425,25,19,99,80,2.210168496,2
553.0078122,9.900807042,10.11818974,12.60149712,12.85334662,0.17952614,0.18133609,10.06359738,10.06359738,0.434838812,0.85716153,28.95393871,29.08423114,11.36705077,25,19,99,80,2.210168496,2
554.0078122,9.910362049,10.11977446,12.60748101,12.87882396,0.178333671,0.183733435,10.01617493,10.01617493,0.434649906,0.857063453,28.95402222,29.08445606,11.36705077,25,19,99,80,2.210168496,2
555.0078122,9.915662462,10.12133226,12.61028338,12.89492745,0.176678665,0.186513171,9.954143973,9.954143973,0.434467004,0.856958009,28.95419286,29.08471996,11.33940486,25,19,99,80,2.210168496,2
556.0078122,9.914112634,10.11858604,12.58503369,12.85164026,0.174425723,0.188950565,9.897451632,9.897451632,0.434284507,0.856853974,28.95444119,29.0849609,11.33940486,25,19,99,80,2.210168496,2
557.0078122,9.909075412,10.11336609,12.54171124,12.73312509,0.171723997,0.190839239,9.862918359,9.862918359,0.43410794,0.856754037,28.95462256,29.08525341,11.31341878,25,19,99,80,2.210168496,2
558.0078122,9.905802673,10.11199655,12.51820687,12.60985714,0.169132477,0.192476581,9.865359578,9.865359578,0.433936792,0.856664632,28.95480059,29.0856204,11.31341878,25,19,99,80,2.210168496,2
559.0078122,9.905596325,10.11821584,12.53821437,12.57791265,0.167496791,0.194169516,9.913978071,9.913978071,0.433758513,0.856581717,28.95495798,29.08589868,11.29192953,24,19,99,80,2.210168496,2
560.0078122,9.905169454,10.13010616,12.58467901,12.64736433,0.167455003,0.195698556,9.991910819,9.991910819,0.433588794,0.856519853,28.95504933,29.08611262,11.29192953,24,19,99,80,2.210168496,2
561.0078122,9.901626517,10.14143124,12.62485525,12.73265317,0.16893889,0.196400531,10.05561723,10.05561723,0.43343829,0.856463278,28.95521642,29.0863531,11.29192953,24,19,99,80,2.210168496,2
562.0078122,9.896194061,10.14560603,12.65091977,12.76335869,0.171151254,0.195891541,10.07597929,10.07597929,0.433287767,0.856417158,28.95522114,29.08660345,11.27761483,24,19,99,80,2.210168496,2
563.0078122,9.892478608,10.14083629,12.67789216,12.7572303,0.173023928,0.194613942,10.06673038,10.06673038,0.433154017,0.85636973,28.95527555,29.0867961,11.27761483,24,19,99,80,2.210168496,2
564.0078122,9.892710666,10.13137925,12.71140193,12.75886493,0.173827975,0.193487868,10.05543235,10.05543235,0.433028997,0.856338107,28.95538147,29.08692916,11.27269272,24,19,99,80,2.210168496,2
565.0078122,9.895988904,10.12420878,12.74027973,12.76363483,0.173607441,0.192999475,10.05182293,10.05182293,0.4329054,0.856333571,28.95548862,29.08721252,11.27269272,24,19,99,80,2.210168496,2
566.0078122,9.899012305,10.12494671,12.75185053,12.74558857,0.173138217,0.192753867,10.05985512,10.05985512,0.432796078,0.856328806,28.95552027,29.08747833,11.27864565,24,19,99,80,2.210168496,2
567.0078122,9.898743239,10.13330374,12.73817217,12.7162537,0.173314446,0.191981339,10.08961772,10.08961772,0.432694043,0.8563249,28.95561413,29.08775366,11.27864565,24,19,99,80,2.210168496,2
568.0078122,9.89514456,10.14188758,12.70016427,12.71310158,0.174375514,0.190384054,10.14255887,10.14255887,0.432602518,0.856321465,28.95569526,29.08801529,11.27864565,24,19,99,80,2.210168496,2
569.0078122,9.891032812,10.14466261,12.65021286,12.74942855,0.175646441,0.188392191,10.2034561,10.2034561,0.432529733,0.856326512,28.95576904,29.08833869,11.27864565,24,19,99,80,2.210168496,2
570.0078122,9.888872203,10.14415401,12.60569263,12.79974434,0.17603086,0.186671006,10.24911032,10.24911032,0.432454619,0.85634002,28.95587616,29.08870649,11.29601123,24,19,99,80,2.210168496,2
571.0078122,9.888744803,10.14426097,12.57848466,12.82743021,0.174793743,0.185582837,10.26000026,10.26000026,0.432390137,0.8563544,28.95603066,29.08903152,11.29601123,24,19,99,80,2.210168496,2
572.0078122,9.889487323,10.14334454,12.56865365,12.81878943,0.172052836,0.185109038,10.23578077,10.23578077,0.432325126,0.856379636,28.95609421,29.08930706,11.29601123,24,19,99,80,2.210168496,2
573.0078122,9.890392744,10.13978863,12.57238927,12.79150887,0.168716308,0.185107979,10.1984919,10.1984919,0.432257163,0.856406971,28.95612654,29.08957685,11.29601123,24,19,99,80,2.210168496,2
574.0078122,9.891354748,10.13561775,12.58514225,12.77137831,0.166043324,0.185427069,10.16824115,10.16824115,0.432205363,0.856452995,28.9561182,29.0898196,11.32427461,24,19,99,80,2.210168496,2
575.0078122,9.891901159,10.1323857,12.59941683,12.76999997,0.165133539,0.185766628,10.14560512,10.14560512,0.432160222,0.856499134,28.95617095,29.09002019,11.32427461,24,19,99,80,2.210168496,2
576.0078122,9.891821801,10.12921189,12.61305879,12.78405378,0.166607414,0.185656879,10.12646091,10.12646091,0.432114726,0.856551279,28.95631295,29.09030895,11.32427461,24,19,99,80,2.210168496,2
577.0078122,9.891954156,10.12536046,12.62035648,12.80442839,0.170534515,0.184804392,10.11577405,10.11577405,0.432093663,0.856616148,28.95646533,29.0905417,11.36188221,23,19,99,81,2.210168496,2
578.0078122,9.892305279,10.12263968,12.59815223,12.82858618,0.176371278,0.183486644,10.11668963,10.11668963,0.432075377,0.856674965,28.95653344,29.09080428,11.36188221,23,19,99,81,2.210168496,2
579.0078122,9.891415618,10.12376928,12.53842867,12.86060147,0.182754117,0.182459938,10.12310228,10.12310228,0.432072903,0.856741587,28.95659937,29.09118461,11.36188221,23,19,99,81,2.210168496,2
580.0078122,9.888977765,10.12955236,12.48598318,12.89692771,0.187565541,0.182403369,10.12769993,10.12769993,0.432068448,0.856806748,28.95671529,29.09157075,11.36188221,23,19,99,81,2.210168496,2
581.0078122,9.887017676,10.13896223,12.50044935,12.92621067,0.188806116,0.18349302,10.12632696,10.12632696,0.432065898,0.856873355,28.95688543,29.09189571,11.40637806,23,19,99,81,2.210168496,2
582.0078122,9.887208931,10.14918936,12.58726203,12.94257561,0.185897466,0.185458798,10.12144865,10.12144865,0.43206995,0.856948565,28.95711967,29.09215989,11.40637806,23,19,99,81,2.210168496,2
583.0078122,9.889415985,10.15668244,12.69825972,12.953686,0.180283687,0.187826729,10.12309154,10.12309154,0.432075834,0.857035408,28.95733156,29.09245901,11.40637806,23,19,99,81,2.210168496,2
584.0078122,9.893572252,10.1617782,12.78959686,12.98362389,0.174720206,0.18998288,10.13716807,10.13716807,0.432086278,0.857105398,28.95751496,29.09275646,11.45464417,23,19,99,81,2.210168496,2
585.0078122,9.89894964,10.16862052,12.85231212,13.05216494,0.171893563,0.191146005,10.15991184,10.15991184,0.432101142,0.857189106,28.95766841,29.09294174,11.45464417,23,19,99,81,2.210168496,2
586.0078122,9.902456621,10.17665557,12.88688164,13.12942929,0.173123216,0.19067383,10.18271289,10.18271289,0.432118189,0.857274085,28.9577845,29.09316571,11.5032099,23,19,99,81,2.210168496,2
587.0078122,9.901679521,10.17673834,12.87531938,13.14623353,0.177751355,0.188634738,10.19655166,10.19655166,0.432149278,0.85736354,28.95790615,29.09353109,11.5032099,23,19,99,81,2.210168496,2
588.0078122,9.898070312,10.16177609,12.80958539,13.0807013,0.183437391,0.186112705,10.20104685,10.20104685,0.432174541,0.857449406,28.9580111,29.09384572,11.54858512,23,19,99,81,2.210168496,2
589.0078122,9.895336799,10.13825026,12.73525066,12.99134863,0.187402583,0.184776515,10.20412543,10.20412543,0.432217445,0.857529655,28.95806129,29.09405798,11.54858512,23,19,99,81,2.210168496,2
590.0078122,9.895957615,10.12137858,12.72154604,12.94711245,0.188045505,0.185865123,10.20783791,10.20783791,0.432257817,0.857610617,28.95823784,29.09432719,11.54858512,23,19,99,81,2.210168496,2
591.0078122,9.898817974,10.1216615,12.78570427,12.96982709,0.18574969,0.189269243,10.21133999,10.21133999,0.432288996,0.857684899,28.95850151,29.09463113,11.58757007,23,19,99,82,2.210168496,2
592.0078122,9.899706081,10.13710925,12.87229157,13.03509997,0.182217515,0.193433081,10.22286714,10.22286714,0.432337334,0.857758936,28.95868031,29.09484167,11.58757007,23,19,99,82,2.210168496,2
593.0078122,9.896382673,10.15407323,12.90810165,13.08947216,0.179048669,0.196318927,10.2439276,10.2439276,0.432378055,0.857823231,28.95879139,29.09514831,11.61750158,23,20,99,82,2.210168496,2
594.0078122,9.891330583,10.15907493,12.87057731,13.0839939,0.176854366,0.196802795,10.25282325,10.25282325,0.432421193,0.857890806,28.95885489,29.09544125,11.61750158,23,20,99,82,2.210168496,2
595.0078122,9.887514297,10.15194863,12.79846815,13.01326709,0.175387737,0.19529964,10.22963774,10.22963774,0.432462513,0.857947803,28.95907139,29.09574482,11.63640926,24,20,99,82,2.210168496,2
596.0078122,9.885789332,10.14362019,12.74429332,12.92231769,0.174211962,0.193060801,10.18600971,10.18600971,0.432498892,0.857996581,28.95928892,29.09593105,11.63640926,24,20,99,82,2.210168496,2
597.0078122,9.886379613,10.14413591,12.72665878,12.87639613,0.173224094,0.19096432,10.1496946,10.1496946,0.432535674,0.858038167,28.95950064,29.09622576,11.63640926,24,20,99,82,2.210168496,2
598.0078122,9.888455987,10.15776703,12.72422639,12.90772196,0.172688925,0.189093938,10.13122345,10.13122345,0.432569539,0.858080995,28.95968836,29.09651596,11.64307322,24,20,99,82,2.210168496,2
599.0078122,9.889352486,10.18366143,12.71079013,12.98300933,0.172825862,0.187246198,10.12460413,10.12460413,0.432593092,0.858114984,28.95980779,29.09673392,11.64307322,24,20,99,82,2.210168496,2
600.0078122,9.8874459,10.21240076,12.68120789,13.03575699,0.173379692,0.185508066,10.12929085,10.12929085,0.432616864,0.858136981,28.95997703,29.09687757,11.63699332,24,20,99,82,2.210168496,2
601.0078122,9.884283602,10.22917668,12.64258683,13.02339142,0.173599581,0.184196316,10.15212135,10.15212135,0.432640331,0.858149413,28.96015106,29.09715662,11.63699332,24,20,99,82,2.210168496,2
602.0078122,9.882218835,10.226202,12.60874221,12.95400159,0.172716718,0.183412681,10.19092519,10.19092519,0.432668347,0.8581548,28.96030422,29.09737922,11.63699332,24,20,99,82,2.210168496,2
603.0078122,9.882169825,10.20639432,12.60127261,12.87422821,0.170577249,0.18286887,10.22978452,10.22978452,0.432686181,0.858153351,28.96046388,29.09757947,11.61829447,24,20,99,81,2.210168496,2
604.0078122,9.884184652,10.17884323,12.63141046,12.82561828,0.167902444,0.182177819,10.25967739,10.25967739,0.432684898,0.858138872,28.96058017,29.09767205,11.61829447,24,20,99,81,2.210168496,2
605.0078122,9.888205464,10.15333061,12.68650906,12.81377954,0.165930101,0.181245796,10.29652279,10.29652279,0.432682912,0.858116939,28.96066006,29.09766495,11.58760136,24,20,99,81,2.210168496,2
606.0078122,9.893047597,10.13635163,12.74273673,12.82670936,0.165707849,0.180375895,10.35539507,10.35539507,0.432680912,0.858091795,28.96073377,29.09776903,11.58760136,24,20,99,81,2.210168496,2
607.0078122,9.895646731,10.13135988,12.77791817,12.85452894,0.167520084,0.180032197,10.40944063,10.40944063,0.43267035,0.858055508,28.96088616,29.09801086,11.54591601,24,20,99,81,2.210168496,2
608.0078122,9.893720939,10.13745491,12.77829537,12.88247482,0.17073627,0.180470446,10.40907304,10.40907304,0.432648877,0.858002677,28.96111433,29.09816884,11.54591601,24,20,99,81,2.210168496,2
609.0078122,9.889118888,10.14787302,12.75077754,12.89921596,0.174125224,0.181528425,10.34243444,10.34243444,0.432624314,0.857945099,28.9613112,29.09819904,11.54591601,24,20,99,81,2.210168496,2
610.0078122,9.886251485,10.15430649,12.71839552,12.9100238,0.176538306,0.182775849,10.24595791,10.24595791,0.432587473,0.857876346,28.96149417,29.09816848,11.49452492,24,20,99,81,2.210168496,2
611.0078122,9.887220911,10.15333128,12.69881094,12.92312458,0.177575842,0.183834183,10.16355549,10.16355549,0.43254875,0.857808794,28.96168618,29.0981365,11.49452492,24,20,99,81,2.210168496,2
612.0078122,9.890044022,10.1491351,12.69410949,12.93608374,0.17783326,0.18449865,10.11913833,10.11913833,0.432506463,0.8577349,28.96190403,29.09816934,11.49452492,24,20,99,81,2.210168496,2
613.0078122,9.89107967,10.14826401,12.69351078,12.94152748,0.178401087,0.184605351,10.11593665,10.11593665,0.432459494,0.857648272,28.96208873,29.09811797,11.43494973,24,20,99,80,2.210168496,2
614.0078122,9.888511565,10.1518689,12.6861333,12.93602793,0.179926432,0.184016611,10.1445831,10.1445831,0.432407399,0.857553555,28.96222836,29.09805221,11.43494973,24,20,99,80,2.210168496,2
615.0078122,9.883903567,10.15661812,12.67175839,12.91628888,0.181996797,0.182857681,10.18729813,10.18729813,0.432346205,0.857462093,28.9623571,29.09801804,11.36894088,24,20,99,80,2.210168496,2
616.0078122,9.880417195,10.15920454,12.65492969,12.87660729,0.183422426,0.18165111,10.21659326,10.21659326,0.432286891,0.857359348,28.96251106,29.09795652,11.36894088,24,20,99,80,2.210168496,2
617.0078122,9.880107986,10.15618363,12.65064064,12.82206885,0.183130882,0.18104669,10.21177358,10.21177358,0.432218072,0.857249922,28.96258282,29.09780191,11.36894088,24,20,99,80,2.210168496,2
618.0078122,9.88301934,10.14714505,12.69366483,12.77424406,0.180820578,0.181336178,10.18420673,10.18420673,0.432141696,0.857133204,28.96265572,29.09774955,11.29849965,24,20,99,80,2.210168496,2
619.0078122,9.887255353,10.13918531,12.79587358,12.75264656,0.176966896,0.182195889,10.1634991,10.1634991,0.432062042,0.857016665,28.96268369,29.09771479,11.29849965,24,20,99,80,2.210168496,2
620.0078122,9.890292349,10.13887345,12.90214525,12.75318757,0.172507957,0.182886764,10.15877934,10.15877934,0.431981923,0.856882839,28.96282503,29.09768702,11.22590507,24,20,99,79,2.210168496,2
621.0078122,9.891348872,10.1434339,12.94223926,12.74966796,0.168560652,0.182768146,10.15981233,10.15981233,0.43188699,0.85674888,28.96292286,29.0975747,11.22590507,24,20,99,79,2.210168496,2
622.0078122,9.891603736,10.14677468,12.91738998,12.71808143,0.166119106,0.181769243,10.17037522,10.17037522,0.431788266,0.856611496,28.96299209,29.09742884,11.15371895,24,20,99,79,2.210168496,2
623.0078122,9.891715941,10.14735032,12.88707661,12.66750712,0.165660804,0.180500968,10.20693581,10.20693581,0.431692123,0.856476439,28.96309167,29.09726359,11.15371895,24,20,99,79,2.210168496,2
624.0078122,9.89030694,10.14659788,12.88366599,12.6407124,0.166945881,0.179956759,10.26824207,10.26824207,0.431584996,0.856342483,28.96316134,29.09715925,11.15371895,24,20,99,79,2.210168496,2
625.0078122,9.886710454,10.14561817,12.88791335,12.66205872,0.16921829,0.180957656,10.32671045,10.32671045,0.431485402,0.856186611,28.96323326,29.09702508,11.15371895,24,20,99,79,2.210168496,2
626.0078122,9.883282292,10.14370092,12.8676245,12.69564962,0.171676367,0.183650463,10.34530746,10.34530746,0.43137806,0.856040226,28.96323473,29.09682441,11.08474642,24,20,99,78,2.210168496,2
627.0078122,9.882193668,10.13921507,12.80176479,12.68463202,0.173741379,0.187337559,10.30562726,10.30562726,0.431269305,0.85590156,28.9631928,29.09662669,11.08474642,24,20,99,78,2.210168496,2
628.0078122,9.88296409,10.13571123,12.69235988,12.62899261,0.1750069,0.190799629,10.22615913,10.22615913,0.431160911,0.855782059,28.96314531,29.09649942,11.08474642,24,20,99,78,2.210168496,2
629.0078122,9.884054363,10.14194228,12.5749649,12.58848654,0.175207323,0.192971139,10.14413218,10.14413218,0.43105231,0.855678445,28.96304363,29.0964664,11.08474642,24,20,99,78,2.210168496,2
630.0078122,9.884046888,10.16025026,12.49999649,12.60744219,0.174406947,0.193491293,10.08161008,10.08161008,0.430955874,0.855573098,28.9630454,29.09637928,11.02193851,24,20,99,78,2.210168496,2
631.0078122,9.882680276,10.18352786,12.49226794,12.68433588,0.173142419,0.192714951,10.04200093,10.04200093,0.430869897,0.855469252,28.96299226,29.09633037,11.02193851,24,20,99,78,2.210168496,2
632.0078122,9.881846476,10.20656181,12.53843678,12.8063812,0.172271131,0.191296765,10.02772035,10.02772035,0.430778809,0.855374356,28.96299185,29.09631223,10.96823671,24,19,99,78,2.210168496,2
633.0078122,9.883347459,10.2289616,12.60630087,12.95048577,0.172665121,0.189825955,10.04045962,10.04045962,0.430699977,0.855281442,28.96298061,29.0962486,10.96823671,24,19,99,78,2.210168496,2
634.0078122,9.88596843,10.24591632,12.6524322,13.05573319,0.174872083,0.188740953,10.07046236,10.07046236,0.430615398,0.855185792,28.96296105,29.09622905,10.92637248,24,19,99,78,2.210168496,2
635.0078122,9.886751349,10.24764127,12.64384179,13.06293107,0.178672801,0.188336683,10.1012099,10.1012099,0.430532724,0.855100948,28.96297898,29.09626261,10.92637248,24,19,99,78,2.210168496,2
636.0078122,9.88510323,10.23103205,12.60103401,12.99295807,0.182870421,0.188706237,10.1214795,10.1214795,0.430452639,0.855015204,28.96294539,29.09624011,10.89864564,24,19,99,77,2.210168496,2
637.0078122,9.883621465,10.20653392,12.57484314,12.93161112,0.1858408,0.189772833,10.12731537,10.12731537,0.430377029,0.854926961,28.96288091,29.09613902,10.89864564,24,19,99,77,2.210168496,2
638.0078122,9.883996139,10.18956116,12.58076658,12.92625118,0.186686417,0.191526765,10.12231739,10.12231739,0.430300054,0.854853389,28.9628565,29.09604132,10.89864564,24,19,99,77,2.210168496,2
639.0078122,9.88518122,10.18559411,12.60109323,12.95130352,0.185758062,0.194222739,10.11364115,10.11364115,0.430229232,0.854779924,28.96291117,29.09587758,10.88671207,25,19,99,77,2.210168496,2
640.0078122,9.886240528,10.18686072,12.62650252,12.97249941,0.184017511,0.19819117,10.09620173,10.09620173,0.430158058,0.854707963,28.96294107,29.09576719,10.88671207,25,19,99,77,2.210168496,2
641.0078122,9.887869091,10.18224978,12.65614722,12.97810403,0.182103865,0.203339913,10.05849135,10.05849135,0.430090993,0.854646486,28.96291071,29.09568803,10.89141131,25,19,99,77,2.210168496,2
642.0078122,9.890823994,10.16838809,12.67738578,12.95753486,0.180103295,0.208830674,10.01318796,10.01318796,0.430031569,0.854593712,28.96276951,29.09565466,10.89141131,25,19,99,77,2.210168496,2
643.0078122,9.894575773,10.153972,12.67663006,12.91435702,0.177953637,0.21333355,9.997660736,9.997660736,0.429977878,0.85454221,28.96265624,29.09558176,10.91265989,25,19,99,77,2.210168496,2
644.0078122,9.897620025,10.15173481,12.6618242,12.88541262,0.175805813,0.215749397,10.03672078,10.03672078,0.429930171,0.854495107,28.96260215,29.09552948,10.91265989,25,19,99,77,2.210168496,2
645.0078122,9.898170821,10.163662,12.64718927,12.8904738,0.173991152,0.21582986,10.11300241,10.11300241,0.429883395,0.854458716,28.96261075,29.0955328,10.91265989,25,19,99,77,2.210168496,2
646.0078122,9.895492324,10.1782145,12.63011164,12.88875374,0.172749102,0.214204244,10.17850804,10.17850804,0.429845363,0.854423972,28.96272298,29.09559821,10.94942674,25,19,99,78,2.210168496,2
647.0078122,9.891325309,10.18362036,12.61138101,12.83959191,0.172056581,0.211870624,10.2053534,10.2053534,0.4298045,0.854393142,28.96278812,29.0954662,10.94942674,25,19,99,78,2.210168496,2
648.0078122,9.888328768,10.18053768,12.61616147,12.76952226,0.171750666,0.209631058,10.21431358,10.21431358,0.429769658,0.854373541,28.96279504,29.09532398,10.99979547,25,19,99,78,2.210168496,2
649.0078122,9.886879836,10.17737524,12.66755073,12.72970219,0.171814424,0.207847205,10.23480735,10.23480735,0.429728697,0.854362343,28.9628395,29.0952461,10.99979547,25,19,99,78,2.210168496,2
650.0078122,9.88568723,10.17637348,12.7494646,12.72894022,0.172530156,0.206497125,10.26121041,10.26121041,0.429696503,0.854359658,28.96283686,29.09511466,10.99979547,25,19,99,78,2.210168496,2
651.0078122,9.88497148,10.17456954,12.81737971,12.74610292,0.174320285,0.205356166,10.27435108,10.27435108,0.429664045,0.854350956,28.96275818,29.09504015,11.06110637,25,19,99,78,2.210168496,2
652.0078122,9.886024099,10.17315942,12.84294209,12.76945213,0.177296676,0.204133609,10.28053455,10.28053455,0.429630751,0.854350165,28.96281785,29.09494683,11.06110637,25,19,99,78,2.210168496,2
653.0078122,9.88810392,10.17465035,12.82671149,12.80195399,0.180766797,0.202576177,10.29566179,10.29566179,0.429598213,0.854357613,28.96290064,29.09488489,11.130161,25,19,99,79,2.210168496,2
654.0078122,9.888571042,10.17932094,12.78424884,12.85070926,0.183203118,0.200541341,10.3060692,10.3060692,0.429572984,0.854369624,28.96302409,29.09478911,11.130161,25,19,99,79,2.210168496,2
655.0078122,9.886685281,10.18959544,12.75328274,12.91395079,0.183023394,0.198013132,10.27949495,10.27949495,0.429552961,0.854376419,28.9631078,29.09464377,11.2034655,25,19,99,79,2.210168496,2
656.0078122,9.884627312,10.20642518,12.77453499,12.97509199,0.17971688,0.195049103,10.2114281,10.2114281,0.429533893,0.854393479,28.96317015,29.09453308,11.2034655,25,19,99,79,2.210168496,2
657.0078122,9.884116235,10.2222209,12.83305373,13.01423437,0.17430679,0.191760475,10.13740126,10.13740126,0.429504655,0.854420106,28.96324635,29.0943044,11.27748551,25,20,99,80,2.210168496,2
658.0078122,9.884959382,10.22795846,12.87525174,13.01663313,0.16874223,0.188409528,10.0958011,10.0958011,0.42948838,0.854439018,28.96329561,29.09406405,11.27748551,25,20,99,80,2.210168496,2
659.0078122,9.88650538,10.2238029,12.89066072,12.97684401,0.164804247,0.185500853,10.09163711,10.09163711,0.429465934,0.854464908,28.96335753,29.09383822,11.27748551,25,20,99,80,2.210168496,2
660.0078122,9.888377286,10.21714597,12.9151996,12.90833461,0.163306375,0.183655575,10.10221908,10.10221908,0.42944424,0.854497601,28.96340898,29.09365829,11.34888633,25,20,99,80,2.210168496,2
661.0078122,9.890060394,10.21675671,12.96692841,12.84537223,0.163931929,0.183285267,10.10977731,10.10977731,0.429417285,0.854538203,28.96353245,29.09343837,11.34888633,25,20,99,80,2.210168496,2
662.0078122,9.890916441,10.22946272,13.02645702,12.83154151,0.165653417,0.184361919,10.12040624,10.12040624,0.429379704,0.854578205,28.9636099,29.09315811,11.41473566,25,20,99,81,2.210168496,2
663.0078122,9.891123064,10.25214905,13.0644129,12.89052904,0.167411375,0.18651511,10.14790527,10.14790527,0.429344369,0.854622148,28.96375842,29.09297527,11.41473566,25,20,99,81,2.210168496,2
664.0078122,9.891430001,10.27075136,13.06534919,13.00273061,0.168556718,0.189273632,10.18469295,10.18469295,0.429316074,0.854675685,28.96395885,29.0927327,11.41473566,25,20,99,81,2.210168496,2
665.0078122,9.89197889,10.27459241,13.02683622,13.11575808,0.168889176,0.192184325,10.19986298,10.19986298,0.429280466,0.854732743,28.96410023,29.09249102,11.47265189,25,20,99,82,2.210168496,2
666.0078122,9.892737826,10.26290813,12.94398276,13.17081878,0.168483329,0.194831117,10.16938262,10.16938262,0.429243324,0.854786295,28.9641581,29.09229599,11.47265189,25,20,99,82,2.210168496,2
667.0078122,9.894425069,10.24110984,12.82340875,13.14155583,0.16759725,0.19697432,10.10432957,10.10432957,0.429200476,0.854843556,28.96426019,29.0918712,11.52088813,26,20,99,82,2.210168496,2
668.0078122,9.897502781,10.22169835,12.70727072,13.06422509,0.166642311,0.198693097,10.04504356,10.04504356,0.429155937,0.854907193,28.96427502,29.09140755,11.52088813,26,20,99,82,2.210168496,2
669.0078122,9.900976239,10.21701691,12.64096713,12.99848881,0.166018069,0.200210048,10.02369647,10.02369647,0.429115151,0.854966956,28.9644395,29.0910361,11.52088813,26,20,99,82,2.210168496,2
670.0078122,9.903395213,10.22421736,12.62762424,12.96256169,0.165816165,0.201508695,10.03381746,10.03381746,0.429075484,0.855031246,28.96456687,29.09066702,11.55834941,26,20,99,83,2.210168496,2
671.0078122,9.904301518,10.22941778,12.63893019,12.93745085,0.16567474,0.202257312,10.04388681,10.04388681,0.429026037,0.855101086,28.9646469,29.09027118,11.55834941,26,20,99,83,2.210168496,2
672.0078122,9.904150951,10.22896697,12.65286866,12.91051693,0.165018482,0.20217011,10.03621249,10.03621249,0.4289794,0.855165855,28.96481135,29.08973518,11.58454711,26,20,99,83,2.210168496,2
673.0078122,9.903514326,10.23187312,12.66841392,12.89109763,0.16354326,0.201297436,10.01839533,10.01839533,0.428923606,0.855235558,28.96496095,29.08917187,11.58454711,26,20,99,83,2.210168496,2
674.0078122,9.902639137,10.23979938,12.68789068,12.89163816,0.161517781,0.19986746,10.00266425,10.00266425,0.428874401,0.855302115,28.96499832,29.08858146,11.59950111,26,20,99,83,2.210168496,2
675.0078122,9.901429991,10.24313753,12.69982229,12.9038076,0.159635201,0.198012766,9.991247835,9.991247835,0.428822148,0.855372425,28.96515265,29.08798799,11.59950111,26,20,99,83,2.210168496,2
676.0078122,9.900260959,10.23628109,12.69543716,12.89988148,0.158557641,0.195845711,9.981566279,9.981566279,0.428755546,0.855443209,28.96519296,29.08733879,11.60360505,26,20,99,84,2.210168496,2
677.0078122,9.90047663,10.22323601,12.67685111,12.86327636,0.158541837,0.193755759,9.973970818,9.973970818,0.428693626,0.855514638,28.96528795,29.08668971,11.60360505,26,20,99,84,2.210168496,2
678.0078122,9.902693111,10.21230917,12.64305298,12.8166789,0.159319926,0.192343498,9.965825278,9.965825278,0.428627778,0.855580628,28.96539363,29.08599268,11.59747331,26,20,99,84,2.210168496,2
679.0078122,9.905760267,10.21143385,12.60014857,12.80854352,0.160266567,0.191905561,9.947590062,9.947590062,0.428562177,0.855650785,28.9654732,29.08527825,11.59747331,26,20,99,84,2.210168496,2
680.0078122,9.907988873,10.22110405,12.57253986,12.85007157,0.16075016,0.191999985,9.919604141,9.919604141,0.428487702,0.855713599,28.96541632,29.08463949,11.58179061,26,21,99,84,2.210168496,2
681.0078122,9.908521038,10.23217593,12.57574319,12.89590074,0.160520945,0.191655135,9.901983374,9.901983374,0.428416049,0.855784611,28.96539614,29.08392775,11.58179061,26,21,99,84,2.210168496,2
682.0078122,9.90766546,10.23732831,12.5951625,12.91060462,0.159885429,0.190131451,9.9170675,9.9170675,0.428349699,0.855866397,28.9654621,29.08318946,11.58179061,26,21,99,84,2.210168496,2
683.0078122,9.905702597,10.23698709,12.60576549,12.9083665,0.159466449,0.187574169,9.966318469,9.966318469,0.428274976,0.855955468,28.96549663,29.08245445,11.5571846,26,21,99,84,2.210168496,2
684.0078122,9.901794476,10.23069074,12.60025721,12.90823723,0.159676039,0.185012875,10.02533046,10.02533046,0.428204781,0.856045381,28.96543807,29.0816971,11.5571846,26,21,99,84,2.210168496,2
685.0078122,9.895390396,10.2146543,12.59141206,12.8901106,0.160356971,0.183727916,10.0635679,10.0635679,0.428137535,0.856136876,28.96530376,29.08091843,11.52413957,26,21,99,84,2.210168496,2
686.0078122,9.888449324,10.19059238,12.60148041,12.82283522,0.160958478,0.184422199,10.06921294,10.06921294,0.428066453,0.856222587,28.96530243,29.08011956,11.52413957,26,21,99,84,2.210168496,2
687.0078122,9.884863429,10.16789578,12.64820985,12.71513949,0.161080033,0.186711903,10.05385054,10.05385054,0.428000141,0.856305419,28.96523428,29.07930171,11.48296467,26,21,99,84,2.210168496,2
688.0078122,9.886675343,10.15437547,12.71724974,12.61169699,0.160802074,0.189281633,10.03804193,10.03804193,0.427933194,0.856382586,28.96511471,29.07844438,11.48296467,26,21,99,84,2.210168496,2
689.0078122,9.891184533,10.15130804,12.7655275,12.55356303,0.160477042,0.190709797,10.03801038,10.03801038,0.4278643,0.856449752,28.96495779,29.07751161,11.48296467,26,21,99,84,2.210168496,2
690.0078122,9.893604752,10.15787687,12.77440286,12.55389711,0.160312903,0.190413597,10.06524948,10.06524948,0.427798897,0.856518813,28.96467417,29.07657373,11.43382307,26,21,99,83,2.210168496,2
691.0078122,9.892685407,10.17253235,12.76741078,12.59809781,0.160271165,0.188979681,10.12570974,10.12570974,0.427716172,0.856590385,28.96434797,29.0756773,11.43382307,26,21,99,83,2.210168496,2
692.0078122,9.891334365,10.19203776,12.7681936,12.66580388,0.160348515,0.187518341,10.21181416,10.21181416,0.427650129,0.856661601,28.96411965,29.07480785,11.37682,26,20,99,83,2.210168496,2
693.0078122,9.891659401,10.21366861,12.77415056,12.74879584,0.16083183,0.186711616,10.3007382,10.3007382,0.427594885,0.856737781,28.96399836,29.07395339,11.37682,26,20,99,83,2.210168496,2
694.0078122,9.892718433,10.23321791,12.77029058,12.84096826,0.162203634,0.186474621,10.36009908,10.36009908,0.427535252,0.856813687,28.9638017,29.07306773,11.31213868,26,20,99,83,2.210168496,2
695.0078122,9.892766611,10.2435461,12.74669221,12.91928651,0.164784279,0.186340592,10.36770712,10.36770712,0.427477319,0.856887403,28.96355999,29.07207001,11.31213868,26,20,99,83,2.210168496,2
696.0078122,9.890917266,10.24135403,12.70697317,12.94742091,0.168398268,0.185924696,10.33783907,10.33783907,0.427418288,0.856966002,28.96333845,29.07109049,11.24020414,26,20,99,83,2.210168496,2
697.0078122,9.887922599,10.2320123,12.67282638,12.91148795,0.172292012,0.185021366,10.30407109,10.30407109,0.42736738,0.857042978,28.96299357,29.07017293,11.24020414,26,20,99,83,2.210168496,2
698.0078122,9.886004236,10.22362254,12.6683706,12.84655531,0.175413433,0.183518607,10.28123121,10.28123121,0.427316877,0.857118162,28.96275598,29.06922062,11.24020414,26,20,99,83,2.210168496,2
699.0078122,9.886627217,10.21852548,12.69275573,12.81114159,0.176928914,0.181461495,10.26952924,10.26952924,0.42725948,0.857197403,28.9624568,29.06833947,11.16184888,26,20,99,82,2.210168496,2
700.0078122,9.888927677,10.21475628,12.72232335,12.83391523,0.176574642,0.179235918,10.26823538,10.26823538,0.427206391,0.857273068,28.96214003,29.06743328,11.16184888,26,20,99,82,2.210168496,2
701.0078122,9.891243694,10.21177418,12.74197904,12.8964045,0.174593016,0.177570214,10.26713176,10.26713176,0.427159493,0.857347344,28.96181875,29.06657673,11.0784507,26,20,99,82,2.210168496,2
702.0078122,9.893526074,10.21042355,12.75927442,12.96458648,0.171515129,0.177170497,10.25054364,10.25054364,0.427108395,0.857419998,28.96161077,29.06568915,11.0784507,26,20,99,82,2.210168496,2
703.0078122,9.896836833,10.2098899,12.78010121,13.01547108,0.168066629,0.178157493,10.21906574,10.21906574,0.427061037,0.857488212,28.96141458,29.06471397,10.99201434,26,20,99,82,2.210168496,2
704.0078122,9.901011087,10.20740761,12.79035,13.04172578,0.16508564,0.179777109,10.19145538,10.19145538,0.427012179,0.857554405,28.96127395,29.06380632,10.99201434,26,20,99,82,2.210168496,2
705.0078122,9.904174623,10.2014507,12.77558113,13.04898958,0.163201251,0.18078621,10.18111026,10.18111026,0.426949176,0.857615185,28.9610843,29.06296951,10.90517429,26,20,99,82,2.210168496,2
706.0078122,9.904107078,10.19389649,12.73978886,13.04211007,0.162594447,0.180365278,10.1827754,10.1827754,0.426894012,0.857668268,28.96089479,29.06204087,10.90517429,26,20,99,82,2.210168496,2
707.0078122,9.899934941,10.18727885,12.6933921,13.01843447,0.163107416,0.178784865,10.1840188,10.1840188,0.426842933,0.857722985,28.96071299,29.06115235,10.82110619,26,20,99,81,2.210168496,2
708.0078122,9.893288141,10.18069704,12.64080969,12.98539484,0.164469866,0.177173413,10.17864879,10.17864879,0.426790559,0.857774066,28.96061593,29.06027356,10.82110619,26,20,99,81,2.210168496,2
709.0078122,9.887468018,10.17207672,12.59206735,12.97482744,0.166281112,0.176582675,10.1670114,10.1670114,0.426741919,0.857817454,28.96046614,29.05943292,10.82110619,26,20,99,81,2.210168496,2
710.0078122,9.885180198,10.16417799,12.57032513,13.0128253,0.167875108,0.17722388,10.15220767,10.15220767,0.42668416,0.857876918,28.96033874,29.05859611,10.74334745,26,20,99,81,2.210168496,2
711.0078122,9.887232071,10.16295846,12.60164276,13.07795732,0.16849343,0.178489745,10.13759932,10.13759932,0.426655281,0.857933842,28.96018274,29.05772253,10.74334745,26,20,99,81,2.210168496,2
712.0078122,9.892593875,10.16980712,12.68889998,13.11718609,0.167809882,0.179538559,10.12226655,10.12226655,0.426641289,0.857976377,28.96004058,29.05689771,10.67554179,26,20,99,81,2.210168496,2
713.0078122,9.898748112,10.18078205,12.776283,13.09686807,0.166345372,0.179826468,10.09861082,10.09861082,0.426605203,0.858017282,28.95995712,29.0560158,10.67554179,26,20,99,81,2.210168496,2
714.0078122,9.903232389,10.19172076,12.78426444,13.0258569,0.165355024,0.179334486,10.06283362,10.06283362,0.426571683,0.858060775,28.95989394,29.05514652,10.62113567,26,19,99,81,2.210168496,2
715.0078122,9.905434696,10.19970202,12.70703141,12.93861142,0.166222323,0.178600392,10.03761255,10.03761255,0.426529422,0.858093245,28.95982312,29.05428989,10.62113567,26,19,99,81,2.210168496,2
716.0078122,9.905621123,10.20146612,12.61570726,12.86116442,0.169737038,0.178531914,10.07236909,10.07236909,0.426477559,0.858128784,28.95973344,29.0534458,10.62113567,26,19,99,81,2.210168496,2
717.0078122,9.903708101,10.19433381,12.57413176,12.80490524,0.175589271,0.179861383,10.1876593,10.1876593,0.426438964,0.858153565,28.95972463,29.05268171,10.58306363,26,19,99,81,2.210168496,2
718.0078122,9.899997681,10.1813248,12.5978928,12.77806473,0.182258966,0.18243746,10.32030101,10.32030101,0.426395447,0.85817833,28.95977691,29.05197558,10.58306363,26,19,99,81,2.210168496,2
719.0078122,9.895482733,10.16755138,12.63487452,12.74639728,0.187407195,0.185056755,10.37146759,10.37146759,0.426356632,0.858196911,28.95982246,29.05119235,10.56346407,26,19,99,81,2.210168496,2
720.0078122,9.8909135,10.14857745,12.56255389,12.60396529,0.18886538,0.186261031,10.31533343,10.31533343,0.426324998,0.858214025,28.95984569,29.05045998,10.56346407,26,19,99,81,1.77051974,1
721.0078122,9.886423506,10.1171085,12.30346687,12.27904634,0.185882129,0.185509682,10.2115967,10.2115967,0.426315347,0.858221173,28.95976609,29.04969386,10.56346407,26,19,99,81,1.77051974,1
722.0078122,9.882780929,10.07959555,11.94312966,11.85880138,0.179666581,0.183539673,10.12025707,10.12025707,0.426294965,0.858228272,28.95982501,29.04897881,10.40019785,27,18,99,78,1.77051974,1
723.0078122,9.881051253,10.05029825,11.6344285,11.50619866,0.1725784,0.181531559,10.06057164,10.06057164,0.426273452,0.858228384,28.95997477,29.04820833,10.40019785,27,18,99,78,1.77051974,1
724.0078122,9.880661615,10.0345322,11.43573609,11.28896796,0.166611474,0.180047322,10.03926509,10.03926509,0.42624859,0.858225819,28.96006513,29.04747354,10.41099144,27,18,99,78,1.77051974,1
725.0078122,9.880372046,10.02923092,11.32274076,11.18319252,0.162496429,0.178849211,10.05782449,10.05782449,0.426222077,0.858219117,28.9601408,29.04678966,10.41099144,27,18,99,78,1.77051974,1
726.0078122,9.880433876,10.03119282,11.26952343,11.16039893,0.159940854,0.177513612,10.09285668,10.09285668,0.426192361,0.858214041,28.96022985,29.04605027,10.43221303,27,18,99,78,1.77051974,1
727.0078122,9.882006596,10.03619854,11.24532598,11.19010542,0.15837294,0.175882786,10.11647252,10.11647252,0.426156024,0.858207766,28.96032869,29.0453227,10.43221303,27,18,99,78,1.77051974,1
728.0078122,9.885163259,10.03896984,11.20353777,11.22932171,0.157355741,0.173906758,10.12443726,10.12443726,0.426129609,0.858197602,28.96040738,29.04465133,10.46313695,27,18,99,78,1.77051974,1
729.0078122,9.888255416,10.03808623,11.12868392,11.25162483,0.156495746,0.171381695,10.11051149,10.11051149,0.426101068,0.858185098,28.96044596,29.04390329,10.46313695,27,18,99,78,1.77051974,1
730.0078122,9.889147237,10.03529508,11.05247417,11.25676977,0.155307174,0.168185811,10.05746759,10.05746759,0.426058395,0.85817557,28.96041153,29.04319371,10.50268873,27,18,99,78,1.77051974,1
731.0078122,9.887443548,10.03265529,11.00525331,11.256626,0.153428189,0.164761291,9.978259801,9.978259801,0.42601383,0.85815048,28.96042046,29.04250693,10.50268873,27,18,99,78,1.77051974,1
732.0078122,9.885393227,10.03215129,10.98367975,11.26439241,0.151089484,0.162199535,9.912507843,9.912507843,0.425971273,0.858127889,28.96040951,29.0418754,10.54946267,27,18,99,78,1.77051974,1
733.0078122,9.885594434,10.03425805,10.96656932,11.27558611,0.149356523,0.161661958,9.881906636,9.881906636,0.425933992,0.858097009,28.96030414,29.04128175,10.54946267,27,18,99,78,1.77051974,1
734.0078122,9.888142054,10.03744185,10.94376119,11.26515515,0.149874481,0.163585456,9.88460502,9.88460502,0.425898121,0.858076217,28.96027064,29.04068461,10.60174731,27,19,99,78,1.77051974,1
735.0078122,9.890932049,10.03998251,10.92770738,11.22063696,0.154217745,0.167374371,9.909783378,9.909783378,0.42585042,0.858050221,28.96018521,29.04006387,10.60174731,27,19,99,78,1.77051974,1
736.0078122,9.892119544,10.04121938,10.93788821,11.1682952,0.162989701,0.171906513,9.941856828,9.941856828,0.425815484,0.858018611,28.9600829,29.03940574,10.60174731,27,19,99,78,1.77051974,1
737.0078122,9.891968452,10.04105821,10.97756906,11.16020049,0.174860162,0.176419796,9.97094454,9.97094454,0.425764663,0.857987721,28.9600508,29.0388181,10.65756174,27,19,99,78,1.77051974,1
738.0078122,9.892148124,10.03915346,11.02739459,11.21544741,0.186332282,0.180845003,10.00046561,10.00046561,0.425715835,0.857959302,28.96001248,29.03818741,10.65756174,27,19,99,78,1.77051974,1
739.0078122,9.893600855,10.03582422,11.06166282,11.2866994,0.193259312,0.185196363,10.03492577,10.03492577,0.425670225,0.857918484,28.96003238,29.03748524,10.71470662,27,19,99,78,1.77051974,1
740.0078122,9.895280564,10.03332465,11.07139543,11.32489911,0.193513763,0.188841168,10.06569095,10.06569095,0.425624618,0.857881555,28.96001862,29.03671809,10.71470662,27,19,99,78,1.77051974,1
741.0078122,9.894397956,10.03376454,11.06164442,11.33465913,0.188334473,0.190694838,10.07447457,10.07447457,0.42557811,0.857841339,28.95991248,29.03595552,10.77083404,27,19,99,78,1.77051974,1
742.0078122,9.890304375,10.03580274,11.03315183,11.3430529,0.180966471,0.190191203,10.05196389,10.05196389,0.425523314,0.857786642,28.95967361,29.0351736,10.77083404,27,19,99,78,1.77051974,1
743.0078122,9.887323308,10.03623953,10.9874344,11.36283389,0.174407435,0.18791306,10.01228426,10.01228426,0.425461852,0.85772699,28.95950736,29.03444703,10.82353949,26,19,99,78,1.77051974,1
744.0078122,9.889562184,10.03628927,10.94612262,11.39121462,0.170405824,0.185346919,9.978483969,9.978483969,0.4254033,0.857670748,28.95926266,29.03375757,10.82353949,26,19,99,78,1.77051974,1
745.0078122,9.895585246,10.04275598,10.94789156,11.42297399,0.1697776,0.184140515,9.956358821,9.956358821,0.425336284,0.857616508,28.95907774,29.03306294,10.82353949,26,19,99,78,1.77051974,1
746.0078122,9.901208295,10.05818659,11.00956605,11.4462058,0.172617638,0.185449814,9.937905053,9.937905053,0.425268967,0.857563825,28.95883689,29.03236395,10.87047594,26,19,99,79,1.77051974,1
747.0078122,9.90396666,10.07321474,11.09486805,11.43352834,0.177917105,0.189454565,9.923365439,9.923365439,0.425198367,0.857515704,28.95866678,29.03166141,10.87047594,26,19,99,79,1.77051974,1
748.0078122,9.903807422,10.07645671,11.15144262,11.37838072,0.183379456,0.195011965,9.921505501,9.921505501,0.425128071,0.857463352,28.95856301,29.0309561,10.90948621,26,19,99,79,1.77051974,1
749.0078122,9.901760012,10.0680245,11.1644795,11.32423699,0.186239002,0.19978935,9.929722701,9.929722701,0.425046101,0.857411247,28.9584344,29.03024883,10.90948621,26,19,99,79,1.77051974,1
750.0078122,9.898621273,10.05557184,11.15003529,11.31574657,0.184804364,0.201194036,9.934291168,9.934291168,0.424964225,0.857358095,28.95829041,29.02949468,10.90948621,26,19,99,79,1.77051974,1
751.0078122,9.895217141,10.04608731,11.12730201,11.34761121,0.179492483,0.197723389,9.935244435,9.935244435,0.4248783,0.8573081,28.95802365,29.02866422,10.93874482,26,19,99,79,1.77051974,1
752.0078122,9.892907983,10.04566126,11.11392647,11.38510968,0.172374684,0.189820364,9.949350623,9.949350623,0.424787112,0.857265026,28.95765297,29.02783061,10.93874482,26,19,99,79,1.77051974,1
753.0078122,9.892327175,10.05568218,11.11916177,11.40472679,0.165608225,0.179622325,9.98458592,9.98458592,0.424686143,0.857218975,28.95726032,29.02706253,10.95689584,26,19,99,79,1.77051974,1
754.0078122,9.892143272,10.06995377,11.13853986,11.4079236,0.160162472,0.169832786,10.03034742,10.03034742,0.424588524,0.857175244,28.95694618,29.02628551,10.95689584,26,19,99,79,1.77051974,1
755.0078122,9.890582889,10.08133302,11.17141062,11.41085278,0.15577528,0.16244018,10.07282867,10.07282867,0.424483578,0.857133566,28.95653934,29.02548143,10.96317056,26,19,99,79,1.77051974,1
756.0078122,9.88796264,10.08752413,11.22996869,11.42362605,0.151870268,0.158104039,10.10565054,10.10565054,0.424376393,0.857090037,28.95607968,29.02465267,10.96317056,26,19,99,79,1.77051974,1
757.0078122,9.886284571,10.09013471,11.31425475,11.44210759,0.148297521,0.156194097,10.1239841,10.1239841,0.424276108,0.857047428,28.95562588,29.02385442,10.95746822,26,19,99,79,1.77051974,1
758.0078122,9.886773785,10.08924015,11.37920933,11.45781998,0.145381694,0.155442343,10.12026904,10.12026904,0.424164988,0.857011762,28.95524342,29.02311335,10.95746822,26,19,99,79,1.77051974,1
759.0078122,9.889047499,10.08057695,11.35739675,11.46585253,0.143459948,0.154801413,10.09387117,10.09387117,0.42405466,0.856976206,28.95485009,29.02228854,10.94038582,26,19,99,79,1.77051974,1
760.0078122,9.892271409,10.06382571,11.24468618,11.46087735,0.142527977,0.154113305,10.05995483,10.05995483,0.423940521,0.856943949,28.95449309,29.02138676,10.94038582,26,19,99,79,1.77051974,1
761.0078122,9.896042271,10.04767278,11.12031322,11.43633254,0.142356218,0.154129872,10.03731403,10.03731403,0.423823893,0.856906633,28.95403701,29.02045606,10.94038582,26,19,99,79,1.77051974,1
762.0078122,9.899541831,10.03917239,11.05814308,11.39369961,0.142891873,0.155723173,10.02488951,10.02488951,0.423701411,0.856872771,28.95365526,29.01950312,10.91318824,26,19,99,79,1.77051974,1
763.0078122,9.900556556,10.03614195,11.06526979,11.34841552,0.144467588,0.158888201,10.00500518,10.00500518,0.423573679,0.85684366,28.9532495,29.01862624,10.91318824,26,19,99,79,1.77051974,1
764.0078122,9.897594776,10.03394788,11.09905778,11.32146318,0.147546123,0.162549334,9.97212455,9.97212455,0.423440267,0.85682096,28.95284667,29.01765743,10.87771765,26,19,99,79,1.77051974,1
765.0078122,9.89272165,10.03260421,11.111564,11.32391246,0.152178301,0.1654314,9.941408045,9.941408045,0.423311247,0.856804366,28.95240149,29.01660303,10.87771765,26,19,99,79,1.77051974,1
766.0078122,9.889438081,10.03363393,11.08567061,11.34049728,0.157611399,0.167062966,9.932073393,9.932073393,0.423180794,0.856788366,28.95186039,29.01553247,10.83624881,26,19,99,79,1.77051974,1
767.0078122,9.888412469,10.03543004,11.03651373,11.33264284,0.16241051,0.167873821,9.954446956,9.954446956,0.423047072,0.856772451,28.95121206,29.0145133,10.83624881,26,19,99,79,1.77051974,1
768.0078122,9.887900818,10.03591004,10.99154116,11.28089851,0.165116066,0.168463112,10.00123422,10.00123422,0.422912205,0.856758547,28.95060332,29.01356952,10.83624881,26,19,99,79,1.77051974,1
769.0078122,9.887007285,10.03544915,10.9707141,11.21225874,0.16502627,0.168963009,10.04150094,10.04150094,0.422776646,0.85674835,28.95006182,29.01252919,10.79130475,26,19,99,79,1.77051974,1
770.0078122,9.886248391,10.03507905,10.97156885,11.16898555,0.162473075,0.16905199,10.04239198,10.04239198,0.422631426,0.856720136,28.94945436,29.01158365,10.79130475,26,19,99,79,1.77051974,1
771.0078122,9.886048025,10.03508226,10.9825249,11.17239792,0.15845666,0.168383177,10.00738648,10.00738648,0.422459774,0.856701516,28.94893849,29.01063307,10.74545188,26,19,99,78,1.77051974,1
772.0078122,9.885820142,10.03603312,11.00571035,11.21586324,0.154010197,0.166934012,9.974240538,9.974240538,0.422266205,0.856694566,28.94844825,29.00953214,10.74545188,26,19,99,78,1.77051974,1
773.0078122,9.884767943,10.03920933,11.04169355,11.26822356,0.149854556,0.165072292,9.968255546,9.968255546,0.422099906,0.856684796,28.94792557,29.00840597,10.70109642,26,19,99,78,1.77051974,1
774.0078122,9.883642722,10.04480334,11.06395423,11.29472635,0.146424177,0.163353946,9.973736957,9.973736957,0.421929843,0.856677623,28.94725989,29.00726107,10.70109642,26,19,99,78,1.77051974,1
775.0078122,9.884364445,10.05089686,11.04530871,11.28757469,0.143979254,0.162156603,9.959610882,9.959610882,0.421762309,0.85668016,28.9465716,29.00609342,10.66030262,26,19,99,78,1.77051974,1
776.0078122,9.887335536,10.05400176,11.00541311,11.25900055,0.142625642,0.16142124,9.92212351,9.92212351,0.421606151,0.856680804,28.94586497,29.00490968,10.66030262,26,19,99,78,1.77051974,1
777.0078122,9.89108278,10.05105974,10.98886538,11.21038985,0.142306399,0.160823544,9.88408032,9.88408032,0.421440467,0.856681238,28.94514193,29.00368412,10.66030262,26,19,99,78,1.77051974,1
778.0078122,9.89486504,10.04353956,11.00543377,11.14214598,0.142821826,0.160283867,9.860129414,9.860129414,0.421271813,0.856685211,28.94432888,29.00245368,10.62464984,26,19,99,78,1.77051974,1
779.0078122,9.89882521,10.03545604,11.02176641,11.08261699,0.143836888,0.160229807,9.848123144,9.848123144,0.421095329,0.856689282,28.94357369,29.00128343,10.62464984,26,19,99,78,1.77051974,1
780.0078122,9.901926728,10.02631964,10.99593565,11.06333338,0.144882248,0.161222268,9.843913719,9.843913719,0.420904057,0.856692023,28.94286614,29.00010589,10.59513964,26,19,99,78,1.77051974,1
781.0078122,9.902186094,10.01346626,10.9178114,11.07988379,0.145429228,0.163310505,9.843710015,9.843710015,0.420704682,0.8566933,28.94214366,28.99887753,10.59513964,26,19,99,78,1.77051974,1
782.0078122,9.898941627,9.999725627,10.82370124,11.11097079,0.145066901,0.165823159,9.841761003,9.841761003,0.420506595,0.856699922,28.941381,28.99759223,10.59513964,26,19,99,78,1.77051974,1
783.0078122,9.894202271,9.99159972,10.76336588,11.14909397,0.143687196,0.167764725,9.836583049,9.836583049,0.420320274,0.85670388,28.94059377,28.99629446,10.57215774,26,19,99,78,1.77051974,1
784.0078122,9.891080303,9.992248722,10.7567457,11.18965592,0.14159019,0.168442167,9.834610493,9.834610493,0.420138688,0.856710951,28.93981016,28.99493993,10.57215774,26,19,99,78,1.77051974,1
785.0078122,9.890752501,9.999915557,10.7913234,11.2132712,0.139452699,0.167777414,9.842502839,9.842502839,0.419954084,0.856722387,28.93909957,28.99356745,10.5554895,26,19,99,78,1.77051974,1
786.0078122,9.891534519,10.01028203,10.85028827,11.20165171,0.138095872,0.166204538,9.858436168,9.858436168,0.419773837,0.856730013,28.93841825,28.99218333,10.5554895,26,19,99,78,1.77051974,1
787.0078122,9.891407268,10.01897198,10.92004284,11.17116732,0.138038992,0.164384137,9.878253113,9.878253113,0.419596604,0.856741056,28.93761871,28.99080521,10.5443828,26,19,99,78,1.77051974,1
788.0078122,9.890360101,10.02385226,10.97796512,11.16995913,0.139133774,0.162903762,9.911400664,9.911400664,0.419410505,0.856747451,28.93679743,28.98952261,10.5443828,26,19,99,78,1.77051974,1
789.0078122,9.889364125,10.02620456,11.01168056,11.22866802,0.140670113,0.162003199,9.975933228,9.975933228,0.419220554,0.856757113,28.93600967,28.98822531,10.5376485,26,19,99,78,1.77051974,1
790.0078122,9.888931454,10.02860013,11.04411769,11.32417755,0.141862851,0.161513368,10.07096803,10.07096803,0.419030141,0.856766135,28.93526527,28.98684824,10.5376485,26,19,99,78,1.77051974,1
791.0078122,9.889172281,10.0311286,11.09182708,11.40221618,0.142214021,0.161177451,10.17376964,10.17376964,0.418840975,0.856782875,28.93455527,28.98537002,10.53378733,26,19,99,78,1.77051974,1
792.0078122,9.889577615,10.03343179,11.12691314,11.432101,0.14156884,0.161047782,10.26341673,10.26341673,0.418646939,0.856800385,28.93377546,28.98396536,10.53378733,26,19,99,78,1.77051974,1
793.0078122,9.889186386,10.04034692,11.12822259,11.42759561,0.140149057,0.161421468,10.32448782,10.32448782,0.41844705,0.85681398,28.93304298,28.98249155,10.53378733,26,19,99,78,1.77051974,1
794.0078122,9.888092437,10.05797865,11.12103783,11.42218617,0.138608198,0.162291254,10.33754997,10.33754997,0.418245273,0.856830816,28.93234406,28.98101419,10.53113151,26,19,99,78,1.77051974,1
795.0078122,9.887390794,10.08195505,11.13629808,11.43524038,0.137744352,0.162947533,10.28827493,10.28827493,0.418047419,0.856841372,28.93169102,28.97949418,10.53113151,26,19,99,78,1.77051974,1
796.0078122,9.887729353,10.09696146,11.1693879,11.44933631,0.137928609,0.162309503,10.18929435,10.18929435,0.417850408,0.856866634,28.9309392,28.97787354,10.52798966,26,19,99,78,1.77051974,1
797.0078122,9.889020624,10.09311479,11.18536277,11.42441307,0.138850011,0.159861009,10.08359029,10.08359029,0.417656333,0.856889529,28.93017017,28.97623854,10.52798966,26,19,99,78,1.77051974,1
798.0078122,9.890174941,10.07737271,11.15782682,11.35129502,0.139920362,0.156300835,10.01386373,10.01386373,0.417455219,0.856906925,28.92935821,28.97465692,10.52278478,26,19,99,78,1.77051974,1
799.0078122,9.889691934,10.06351415,11.10798294,11.27708359,0.140817402,0.153124108,9.991387519,9.991387519,0.417261321,0.856928075,28.92851672,28.97312898,10.52278478,26,19,99,78,1.77051974,1
800.0078122,9.888289333,10.0571624,11.0903052,11.26099743,0.141585754,0.151408734,9.998402034,9.998402034,0.417071807,0.856951731,28.92771541,28.97158153,10.5141758,26,19,99,78,1.77051974,1
801.0078122,9.888641065,10.05504583,11.13280395,11.30987119,0.142392088,0.151034419,10.01908937,10.01908937,0.416884241,0.856978229,28.92696194,28.97002162,10.5141758,26,19,99,78,1.77051974,1
802.0078122,9.890996028,10.05332008,11.20670816,11.36980309,0.14336117,0.151091226,10.05610333,10.05610333,0.416694976,0.857006557,28.92629071,28.96842197,10.50115421,26,19,99,78,1.77051974,1
803.0078122,9.892631892,10.05221442,11.2686877,11.39381626,0.144546813,0.150866517,10.10465139,10.10465139,0.416508529,0.857033697,28.92555778,28.96684271,10.50115421,26,19,99,78,1.77051974,1
804.0078122,9.891763144,10.05413891,11.31348365,11.39746672,0.14577641,0.150333487,10.13834076,10.13834076,0.416328332,0.857064749,28.92484919,28.96522499,10.50115421,26,19,99,78,1.77051974,1
805.0078122,9.888732437,10.05949142,11.3459118,11.42144457,0.14640058,0.149868241,10.13556711,10.13556711,0.416150665,0.857091724,28.92423125,28.96360272,10.48310902,26,19,99,78,1.77051974,1
806.0078122,9.884747568,10.06476219,11.33814795,11.46365633,0.145414963,0.149730842,10.09958329,10.09958329,0.415968884,0.857122617,28.923533,28.96192711,10.48310902,26,19,99,78,1.77051974,1
807.0078122,9.881438721,10.06636534,11.27873142,11.48589747,0.142194605,0.149839903,10.05519223,10.05519223,0.415794417,0.857163384,28.9227867,28.96024308,10.45985457,26,19,99,78,1.77051974,1
808.0078122,9.880171895,10.06500599,11.21081331,11.47511012,0.137217647,0.14991781,10.03131303,10.03131303,0.415616558,0.857211375,28.92201536,28.95855258,10.45985457,26,19,99,78,1.77051974,1
809.0078122,9.880831897,10.0630046,11.16748379,11.44979062,0.131949712,0.14978767,10.04293032,10.04293032,0.415441722,0.857257312,28.92127734,28.95690335,10.43161886,26,19,99,78,1.77051974,1
810.0078122,9.882144376,10.06018522,11.13147324,11.41671819,0.127843481,0.149569032,10.08427898,10.08427898,0.41526981,0.857311403,28.92061404,28.95532778,10.43161886,26,19,99,78,1.77051974,1
811.0078122,9.882845249,10.05551463,11.08859193,11.37138119,0.125501084,0.149589082,10.13086988,10.13086988,0.415114521,0.857362024,28.9199264,28.95382333,10.39899338,26,19,99,77,1.77051974,1
812.0078122,9.882360122,10.05059887,11.06398548,11.32285139,0.12475307,0.150103888,10.15945585,10.15945585,0.41495824,0.857412851,28.91933989,28.95225696,10.39899338,26,19,99,77,1.77051974,1
813.0078122,9.881474427,10.04731589,11.07262639,11.28044825,0.125392829,0.151233864,10.16423389,10.16423389,0.414791528,0.857466956,28.91874973,28.95060892,10.39899338,26,19,99,77,1.77051974,1
814.0078122,9.882193907,10.04308999,11.07435494,11.23611073,0.127723794,0.153292432,10.13862899,10.13862899,0.414636986,0.857529081,28.91808293,28.94905559,10.36284955,26,19,99,77,1.77051974,1
815.0078122,9.885578098,10.03468988,11.03010287,11.19327635,0.132364774,0.157037007,10.0707672,10.0707672,0.414474509,0.857587991,28.917553,28.94759109,10.36284955,26,19,99,77,1.77051974,1
816.0078122,9.889770113,10.02459677,10.96592246,11.18874372,0.139456962,0.163243379,9.973167981,9.973167981,0.41432593,0.857649078,28.91704396,28.94626087,10.3242314,26,19,99,77,1.77051974,1
817.0078122,9.891451126,10.01845873,10.93706648,11.24486308,0.147937632,0.171689161,9.883994131,9.883994131,0.414169093,0.857719576,28.9165271,28.94477529,10.3242314,26,19,99,77,1.77051974,1
818.0078122,9.889148748,10.01879142,10.9687175,11.32721127,0.155590722,0.180400382,9.83267068,9.83267068,0.414015465,0.857780947,28.91588942,28.94322726,10.28423769,26,19,99,77,1.77051974,1
819.0078122,9.884524782,10.02317697,11.04414657,11.38525304,0.160088312,0.186156896,9.821209041,9.821209041,0.413865231,0.857845689,28.91522241,28.94176908,10.28423769,26,19,99,77,1.77051974,1
820.0078122,9.880674525,10.027224,11.1141904,11.40257137,0.160395969,0.18638864,9.835604169,9.835604169,0.41371904,0.857906373,28.91455693,28.94028842,10.28423769,26,19,99,77,1.77051974,1
821.0078122,9.878998921,10.02964873,11.13539566,11.39644711,0.157421587,0.181102273,9.86521307,9.86521307,0.413572936,0.857973972,28.91396248,28.9387797,10.24390915,26,19,99,77,1.77051974,1
822.0078122,9.878375834,10.03321858,11.11672823,11.40064271,0.153300953,0.172977288,9.909623753,9.909623753,0.413432417,0.858045646,28.91329785,28.93733344,10.24390915,26,19,99,77,1.77051974,1
823.0078122,9.877826383,10.03906437,11.10291588,11.43593727,0.149996428,0.165522544,9.969214927,9.969214927,0.41329843,0.85811868,28.91261527,28.93593562,10.20413662,26,19,99,77,1.77051974,1
824.0078122,9.877616574,10.04417017,11.12305509,11.48389133,0.148314137,0.160865155,10.02980943,10.02980943,0.413151259,0.858187113,28.91190128,28.93457436,10.20413662,26,19,99,77,1.77051974,1
825.0078122,9.87755933,10.04662029,11.16802596,11.50474889,0.14792936,0.158946029,10.05963272,10.05963272,0.413010681,0.858253276,28.91111886,28.93322503,10.16560361,26,19,99,77,1.77051974,1
826.0078122,9.877108728,10.04865063,11.20594244,11.47531472,0.148023723,0.158310767,10.03304251,10.03304251,0.412866977,0.858319421,28.91045833,28.9319807,10.16560361,26,19,99,77,1.77051974,1
827.0078122,9.876972012,10.05325423,11.2214263,11.40758812,0.147886564,0.15750509,9.96271012,9.96271012,0.412724811,0.858389665,28.90991782,28.93074613,10.16560361,26,19,99,77,1.77051974,1
828.0078122,9.878296572,10.06289194,11.22818575,11.34678571,0.147166263,0.155957417,9.894354652,9.894354652,0.412583132,0.858458118,28.9094259,28.9293839,10.12877172,26,19,99,77,1.77051974,1
829.0078122,9.880497485,10.07894818,11.23787707,11.33603457,0.145824615,0.153936878,9.865767018,9.865767018,0.412443948,0.858520096,28.90877968,28.92807158,10.12877172,26,19,99,77,1.77051974,1
830.0078122,9.881805181,10.09519161,11.24746255,11.3718536,0.143953444,0.15200704,9.882620884,9.882620884,0.412305209,0.858594726,28.90812162,28.92680252,10.09391101,26,19,99,77,1.77051974,1
831.0078122,9.881813285,10.09962254,11.25905611,11.41677648,0.141608589,0.150589818,9.924928295,9.924928295,0.412179564,0.858657952,28.90744009,28.92556782,10.09391101,26,19,99,77,1.77051974,1
832.0078122,9.882033699,10.08971024,11.27896358,11.44238057,0.138851498,0.149811112,9.960835956,9.960835956,0.412049485,0.858713997,28.90674055,28.92452703,10.0611692,25,19,99,77,1.77051974,1
833.0078122,9.883938084,10.07483131,11.29680438,11.43590523,0.136031343,0.149484433,9.96668519,9.96668519,0.411915633,0.858780442,28.90600821,28.92345537,10.0611692,25,19,99,77,1.77051974,1
834.0078122,9.886819288,10.06286138,11.28778996,11.39266393,0.13396103,0.149218053,9.949198527,9.949198527,0.411791784,0.858842424,28.90541752,28.92230888,10.03066694,25,19,99,77,1.77051974,1
835.0078122,9.887929813,10.05535959,11.23578939,11.32519114,0.13358463,0.148714915,9.938046126,9.938046126,0.411656036,0.858903248,28.90485396,28.92120968,10.03066694,25,19,99,77,1.77051974,1
836.0078122,9.885587175,10.05197261,11.15060781,11.25933819,0.135275326,0.148086586,9.950582722,9.950582722,0.411521466,0.858955714,28.90421447,28.92012356,10.03066694,25,19,99,77,1.77051974,1
837.0078122,9.881438612,10.0520912,11.06888543,11.21558546,0.138289228,0.147819151,9.974228501,9.974228501,0.411390975,0.859013982,28.90364625,28.91909196,10.00260082,25,19,99,77,1.77051974,1
838.0078122,9.878714068,10.05411651,11.02585077,11.20490822,0.140957683,0.148345349,9.985482581,9.985482581,0.411259195,0.85905952,28.90317018,28.91800803,10.00260082,25,19,99,77,1.77051974,1
839.0078122,9.879485446,10.05567506,11.0200444,11.22850374,0.141662176,0.149641585,9.975700519,9.975700519,0.411124484,0.859111378,28.90245445,28.91694064,9.977333531,25,19,99,77,1.77051974,1
840.0078122,9.883546284,10.05501125,11.0189106,11.27013163,0.139941491,0.151250758,9.95228368,9.95228368,0.410997831,0.859154163,28.90177211,28.91584329,9.977333531,25,19,99,77,1.77051974,1
841.0078122,9.889049105,10.05093843,10.99441664,11.30573472,0.136770558,0.152624987,9.923829067,9.923829067,0.41085521,0.859197644,28.90114044,28.91477447,9.955452023,25,19,99,77,1.77051974,1
842.0078122,9.894644584,10.04304666,10.94261993,11.32903268,0.133737629,0.153363572,9.898068977,9.898068977,0.410715914,0.859234366,28.90060452,28.91382146,9.955452023,25,19,99,77,1.77051974,1
843.0078122,9.899960222,10.03529123,10.87711849,11.35453178,0.131912916,0.153199226,9.888279641,9.888279641,0.410574265,0.859268029,28.90002128,28.91287186,9.937779269,25,18,99,77,1.77051974,1
844.0078122,9.903715822,10.03348187,10.82168063,11.39858286,0.131382189,0.152000936,9.901435411,9.901435411,0.410423778,0.85929294,28.89936441,28.9118565,9.937779269,25,18,99,77,1.77051974,1
845.0078122,9.903977744,10.03733059,10.81264838,11.46709229,0.131600643,0.14996254,9.927939897,9.927939897,0.410288548,0.859314545,28.89869286,28.91082039,9.937779269,25,18,99,77,1.77051974,1
846.0078122,9.900353863,10.04322889,10.88422846,11.54741068,0.131971386,0.14771751,9.963543235,9.963543235,0.410149133,0.859331929,28.89801812,28.90972685,9.92533278,25,18,99,77,1.77051974,1
847.0078122,9.893621169,10.05056511,11.02693074,11.59589928,0.13212872,0.146083303,10.02035564,10.02035564,0.410014848,0.859352354,28.89747836,28.90860937,9.92533278,25,18,99,77,1.77051974,1
848.0078122,9.885353727,10.05753909,11.16619397,11.56073973,0.13200345,0.145579237,10.09052538,10.09052538,0.409885038,0.859366541,28.89696431,28.90744959,9.92533278,25,18,99,77,1.77051974,1
849.0078122,9.878955422,10.05811663,11.21511753,11.44645791,0.131947542,0.146189619,10.12857635,10.12857635,0.409758532,0.859382994,28.89641861,28.90627887,9.92533278,25,18,99,77,1.77051974,1
850.0078122,9.876870641,10.04858832,11.16020378,11.32586664,0.132727385,0.147522493,10.10301373,10.10301373,0.409648087,0.859384213,28.89594865,28.90511351,9.919232163,25,18,99,77,1.77051974,1
851.0078122,9.877643927,10.03441752,11.07175348,11.27190199,0.134970454,0.149121847,10.0418284,10.0418284,0.409532743,0.859393174,28.89544034,28.9039961,9.919232163,25,18,99,77,1.77051974,1
852.0078122,9.878711591,10.02702812,11.031437,11.29602028,0.138362736,0.150581299,9.996567873,9.996567873,0.409426528,0.859399659,28.89484083,28.90283084,9.919232163,25,18,99,77,1.77051974,1
853.0078122,9.879857863,10.03168589,11.06808252,11.35572047,0.141551013,0.151461128,9.980513407,9.980513407,0.409332379,0.859395456,28.89416324,28.90165433,9.920566728,25,18,99,77,1.77051974,1
854.0078122,9.882317853,10.04257034,11.15312963,11.40923072,0.143086975,0.151275033,9.970775564,9.970775564,0.409232796,0.859393905,28.89348012,28.90055522,9.920566728,25,18,99,77,1.77051974,1
855.0078122,9.885894788,10.05073398,11.23407046,11.44928443,0.142499296,0.149706016,9.95075802,9.95075802,0.409145939,0.859386186,28.89292907,28.89943483,9.930241278,25,18,99,77,1.77051974,1
856.0078122,9.888560772,10.05209966,11.27233648,11.49767979,0.140432246,0.14691002,9.919738228,9.919738228,0.409061922,0.859376388,28.89236653,28.89838832,9.930241278,25,18,99,77,1.77051974,1
857.0078122,9.888882779,10.04831295,11.25905475,11.56842449,0.137931337,0.1436371,9.881948251,9.881948251,0.408986727,0.859368639,28.89184189,28.89732276,9.930241278,25,18,99,77,1.77051974,1
858.0078122,9.887876708,10.04346287,11.20381282,11.61734357,0.135785096,0.141072605,9.849717327,9.849717327,0.408927753,0.859354968,28.89122895,28.8961739,9.948822254,25,18,99,78,1.77051974,1
859.0078122,9.888175747,10.03995128,11.12005394,11.56771727,0.134430755,0.140524089,9.838646809,9.838646809,0.408861519,0.859336562,28.89067341,28.89492123,9.948822254,25,18,99,78,1.77051974,1
860.0078122,9.891507149,10.03606762,11.02196426,11.41318249,0.134149382,0.143076718,9.848823012,9.848823012,0.408798445,0.859319756,28.89010457,28.89374039,9.976406904,25,18,99,78,1.77051974,1
861.0078122,9.897270336,10.02902635,10.93396615,11.24375013,0.135132291,0.149257835,9.862982948,9.862982948,0.408738902,0.859299143,28.88959703,28.89246578,9.976406904,25,18,99,78,1.77051974,1
862.0078122,9.903194116,10.02044551,10.89052066,11.15019792,0.137372623,0.158722646,9.865284315,9.865284315,0.408691605,0.859283838,28.88895831,28.89119298,10.01253503,25,18,99,78,1.77051974,1
863.0078122,9.907020503,10.01493745,10.90422988,11.14447484,0.140574182,0.17022391,9.856515732,9.856515732,0.408661649,0.859268326,28.88825909,28.88994871,10.01253503,25,18,99,78,1.77051974,1
864.0078122,9.907940632,10.01443113,10.94691525,11.18069246,0.144252288,0.182030349,9.851946864,9.851946864,0.408631288,0.859255257,28.88767514,28.88867068,10.01253503,25,18,99,78,1.77051974,1
865.0078122,9.90633845,10.01755719,10.98242852,11.20689431,0.14806083,0.192605056,9.863517676,9.863517676,0.408604598,0.859245257,28.88702484,28.88734602,10.05615696,25,18,99,78,1.77051974,1
866.0078122,9.902317521,10.02107819,10.99976471,11.18569642,0.15214256,0.200986005,9.884004147,9.884004147,0.408594846,0.859228046,28.88627594,28.88608351,10.05615696,25,18,99,78,1.77051974,1
867.0078122,9.895926536,10.02053429,11.01217696,11.1088415,0.157067138,0.206658681,9.896730716,9.896730716,0.408599342,0.859213098,28.88551392,28.88481618,10.1056636,25,18,99,78,1.77051974,1
868.0078122,9.888488226,10.01517642,11.04411352,11.01796148,0.163195196,0.209374871,9.898289758,9.898289758,0.408607138,0.85917934,28.88485148,28.88350092,10.1056636,25,18,99,78,1.77051974,1
869.0078122,9.88209403,10.0101897,11.10448375,10.98575905,0.170005222,0.20918388,9.897503911,9.897503911,0.408624835,0.859152952,28.88427471,28.88211005,10.15897649,25,18,99,78,1.77051974,1
870.0078122,9.878128843,10.00946861,11.16454223,11.04587655,0.176096905,0.206298368,9.901724967,9.901724967,0.408643322,0.859122215,28.88360625,28.88069654,10.15897649,25,18,99,78,1.77051974,1
871.0078122,9.877094486,10.01250407,11.18512712,11.1635845,0.179901194,0.200747479,9.920469852,9.920469852,0.408668521,0.859092744,28.88295115,28.87929328,10.15897649,25,18,99,78,1.77051974,1
872.0078122,9.87878102,10.01930747,11.15947594,11.28970788,0.180498604,0.192475618,9.96691476,9.96691476,0.408696783,0.859064822,28.88221127,28.87787218,10.21368811,25,18,99,78,1.77051974,1
873.0078122,9.881330269,10.03148062,11.11209788,11.39444046,0.178051193,0.182013976,10.04012652,10.04012652,0.408737078,0.859037087,28.88134744,28.87651431,10.21368811,25,18,99,78,1.77051974,1
874.0078122,9.882108704,10.04903419,11.07351309,11.45717092,0.173720204,0.17084935,10.11415427,10.11415427,0.40879081,0.859010304,28.88046671,28.87517534,10.26723738,25,18,99,78,1.77051974,1
875.0078122,9.880302985,10.06670859,11.06929915,11.462975,0.169025388,0.160834976,10.15667055,10.15667055,0.408844011,0.858983076,28.87966557,28.87371431,10.26723738,25,18,99,78,1.77051974,1
876.0078122,9.877540528,10.07506546,11.09861443,11.42431573,0.164926213,0.153364248,10.15954481,10.15954481,0.408902538,0.858979082,28.87886392,28.87212683,10.31710151,25,18,99,78,1.77051974,1
877.0078122,9.875931776,10.06949819,11.12909655,11.37580148,0.161252189,0.148882988,10.13940193,10.13940193,0.40899531,0.858986232,28.87803359,28.87067232,10.31710151,25,18,99,78,1.77051974,1
878.0078122,9.876762672,10.05622321,11.13879956,11.34997426,0.157182332,0.147029527,10.11123569,10.11123569,0.409099253,0.858972742,28.87730146,28.86932652,10.3609846,25,18,99,78,1.77051974,1
879.0078122,9.880454782,10.0451051,11.13417852,11.35587617,0.152263776,0.146982903,10.08437287,10.08437287,0.409189668,0.858969085,28.87656222,28.86797812,10.3609846,25,18,99,78,1.77051974,1
880.0078122,9.885929304,10.0413154,11.12096368,11.37868378,0.14684376,0.147786375,10.07221817,10.07221817,0.409276738,0.858963485,28.87574525,28.86660465,10.3609846,25,18,99,78,1.77051974,1
881.0078122,9.890473801,10.04464626,11.09428349,11.40497764,0.141697137,0.148576011,10.07808624,10.07808624,0.40936815,0.858958867,28.87483421,28.86528231,10.3969842,25,18,99,78,1.77051974,1
882.0078122,9.891557293,10.05097271,11.05269338,11.43864264,0.137594611,0.14871151,10.08904336,10.08904336,0.409469573,0.858948273,28.87392878,28.86392678,10.3969842,25,18,99,78,1.77051974,1
883.0078122,9.889058501,10.05496309,11.00513673,11.47325497,0.135168632,0.147883388,10.09494922,10.09494922,0.40956639,0.85893327,28.87307309,28.86247337,10.42372016,25,18,99,78,1.77051974,1
884.0078122,9.885626166,10.05431504,10.96721088,11.47493666,0.134739967,0.146238733,10.09128324,10.09128324,0.409666557,0.858929248,28.87219982,28.861027,10.42372016,25,18,99,78,1.77051974,1
885.0078122,9.884194726,10.0514335,10.94880599,11.43154785,0.135989398,0.144391921,10.07009014,10.07009014,0.409771907,0.858920349,28.87139828,28.85960261,10.42372016,25,18,99,78,1.77051974,1
886.0078122,9.885253533,10.04938916,10.94443011,11.37509195,0.137908617,0.143157271,10.03010024,10.03010024,0.409873551,0.858917291,28.87060397,28.85817114,10.44041446,25,18,99,78,1.77051974,1
887.0078122,9.88760009,10.04649918,10.94354618,11.32827442,0.139340215,0.143076932,9.988270183,9.988270183,0.409972709,0.858916679,28.86973932,28.85656366,10.44041446,25,18,99,78,1.77051974,1
888.0078122,9.890501805,10.03897443,10.94738436,11.2890853,0.139739006,0.144055303,9.96650412,9.96650412,0.410073194,0.858911473,28.86880833,28.85502874,10.44691567,25,18,99,78,1.77051974,1
889.0078122,9.893426282,10.02864279,10.95683685,11.26951087,0.139398581,0.145404038,9.970540694,9.970540694,0.410169238,0.858913957,28.86781092,28.85351675,10.44691567,25,18,99,78,1.77051974,1
890.0078122,9.895504743,10.02227216,10.95782961,11.2914298,0.138939675,0.146345102,9.99431795,9.99431795,0.410278617,0.858920518,28.86695857,28.85203691,10.44366788,25,18,99,78,1.77051974,1
891.0078122,9.896018898,10.02306377,10.94750779,11.34021161,0.138642835,0.146619937,10.03714443,10.03714443,0.410388901,0.858920423,28.86608488,28.85041283,10.44366788,25,18,99,78,1.77051974,1
892.0078122,9.894214908,10.02849776,10.95010041,11.36192703,0.138352703,0.146643989,10.09927926,10.09927926,0.41049512,0.85892845,28.86517248,28.84864437,10.44366788,25,18,99,78,1.77051974,1
893.0078122,9.890176124,10.03639058,10.98448489,11.33275349,0.137878561,0.147022736,10.16606687,10.16606687,0.410599163,0.858939141,28.86426048,28.84713004,10.43162934,25,18,99,78,1.77051974,1
894.0078122,9.885593275,10.046287,11.03516917,11.290601,0.137245504,0.147925033,10.20463727,10.20463727,0.410694701,0.858948655,28.86333355,28.84563603,10.43162934,25,18,99,78,1.77051974,1
895.0078122,9.882039886,10.05449264,11.07013545,11.26634727,0.136540499,0.148979447,10.18528261,10.18528261,0.41079645,0.858955139,28.86239395,28.84407831,10.41215123,25,18,99,78,1.77051974,1
896.0078122,9.879882147,10.05489198,11.08329049,11.24840179,0.135734558,0.149725929,10.11722964,10.11722964,0.410904859,0.858974763,28.86156979,28.84248426,10.41215123,25,18,99,78,1.77051974,1
897.0078122,9.879161436,10.0466367,11.09912758,11.23024787,0.134805572,0.150025489,10.04640908,10.04640908,0.411011505,0.858986275,28.8606136,28.84088791,10.38683133,25,18,99,78,1.77051974,1
898.0078122,9.880178796,10.03665982,11.13628942,11.22721753,0.1339597,0.150035585,10.01148375,10.01148375,0.411119889,0.859003978,28.8597146,28.83924056,10.38683133,25,18,99,78,1.77051974,1
899.0078122,9.882800689,10.03304831,11.18638576,11.2518928,0.13357717,0.149976801,10.01781404,10.01781404,0.411225092,0.859033171,28.8589485,28.8375416,10.38683133,25,18,99,78,1.77051974,1
900.0078122,9.885901511,10.03737916,11.2310813,11.3054214,0.133873111,0.150006691,10.04306745,10.04306745,0.411328997,0.85906225,28.85817629,28.83580662,10.35735926,25,18,99,78,1.77051974,1
901.0078122,9.888338228,10.04444285,11.26623178,11.37319172,0.13464922,0.150170073,10.05663104,10.05663104,0.411434668,0.859096644,28.85727241,28.83414125,10.35735926,25,18,99,78,1.77051974,1
902.0078122,9.889919022,10.0495017,11.29094962,11.42540559,0.135437959,0.150344311,10.04240551,10.04240551,0.411539536,0.85914088,28.85635467,28.83244912,10.32537039,25,18,99,78,1.77051974,1
903.0078122,9.890245464,10.05198933,11.2838891,11.43914215,0.135906189,0.150313224,10.01125365,10.01125365,0.411639498,0.859181373,28.8553622,28.83071336,10.32537039,25,18,99,78,1.77051974,1
904.0078122,9.888335785,10.05259999,11.23117938,11.41548024,0.136053482,0.150002546,9.991950822,9.991950822,0.411730562,0.859227953,28.854415,28.82897178,10.2923232,25,18,99,78,1.77051974,1
905.0078122,9.884905303,10.053123,11.17496113,11.37553734,0.136001903,0.14960286,10.00634589,10.00634589,0.411813522,0.859280461,28.85350154,28.82736773,10.2923232,25,18,99,78,1.77051974,1
906.0078122,9.882885173,10.05606416,11.17573507,11.34784088,0.135727676,0.149388825,10.05637063,10.05637063,0.41189533,0.859331355,28.85253696,28.82575822,10.2923232,25,18,99,78,1.77051974,1
907.0078122,9.884333956,10.0601021,11.22433961,11.35087508,0.135144923,0.149426393,10.12428671,10.12428671,0.411968823,0.859379532,28.85160581,28.82421062,10.25941055,25,18,99,78,1.77051974,1
908.0078122,9.887633687,10.06084706,11.25929905,11.38560571,0.134400941,0.149456602,10.17067065,10.17067065,0.412043742,0.859430492,28.85064706,28.82263782,10.25941055,25,18,99,78,1.77051974,1
909.0078122,9.889071235,10.0566556,11.25779068,11.44477643,0.133915472,0.149051273,10.15907049,10.15907049,0.41211797,0.859484452,28.84969233,28.82102856,10.22750968,26,18,99,78,1.77051974,1
910.0078122,9.8869363,10.05009754,11.24034028,11.51766876,0.134107512,0.147985366,10.09962701,10.09962701,0.412187385,0.859554324,28.84869049,28.81942563,10.22750968,26,18,99,78,1.77051974,1
911.0078122,9.882994114,10.04478024,11.21828481,11.58805672,0.135252413,0.146581327,10.03663626,10.03663626,0.412266642,0.859621387,28.84770596,28.817694,10.22750968,26,18,99,78,1.77051974,1
912.0078122,9.880358512,10.04193703,11.18921016,11.63770276,0.137664532,0.145618903,9.997929201,9.997929201,0.412330529,0.859695668,28.84679753,28.81595582,10.19716925,26,18,99,79,1.77051974,1
913.0078122,9.880478047,10.03976503,11.15888608,11.64380268,0.141728303,0.145744649,9.988774785,9.988774785,0.412381006,0.859768414,28.84588778,28.81424077,10.19716925,26,18,99,79,1.77051974,1
914.0078122,9.882386833,10.03601384,11.13994275,11.57788017,0.147349226,0.146935822,10.0073694,10.0073694,0.412440659,0.859848347,28.84492402,28.81261449,10.16862662,26,18,99,79,1.77051974,1
915.0078122,9.884083729,10.03109745,11.13907965,11.4530797,0.153211786,0.148555453,10.03573785,10.03573785,0.412492768,0.859935455,28.84389899,28.81093244,10.16862662,26,18,99,79,1.77051974,1
916.0078122,9.883873459,10.02782748,11.14875331,11.35529031,0.156978581,0.149885999,10.04529935,10.04529935,0.412548714,0.860023685,28.84282431,28.80934092,10.16862662,26,18,99,79,1.77051974,1
917.0078122,9.881415656,10.02763963,11.14880589,11.34800449,0.156664473,0.150616789,10.03050863,10.03050863,0.412602594,0.860112518,28.84176112,28.80777791,10.14184449,26,18,99,79,1.77051974,1
918.0078122,9.878417913,10.02904797,11.13655813,11.39154481,0.152106818,0.150948265,10.01553807,10.01553807,0.412646765,0.860211353,28.8406323,28.80626221,10.14184449,26,18,99,79,1.77051974,1
919.0078122,9.877476519,10.03040531,11.13553545,11.41721059,0.145164539,0.151328325,10.02054339,10.02054339,0.412700198,0.860315543,28.8395029,28.80488437,10.11655547,26,18,99,79,1.77051974,1
920.0078122,9.879424432,10.03191828,11.15521968,11.4074142,0.138517022,0.152022176,10.03948882,10.03948882,0.412746857,0.860422655,28.83836679,28.80346747,10.11655547,26,18,99,79,1.77051974,1
921.0078122,9.882652701,10.03475184,11.18822119,11.38268981,0.134189304,0.152800617,10.05435484,10.05435484,0.412798024,0.860531458,28.8371245,28.80201271,10.09230474,26,18,99,79,1.77051974,1
922.0078122,9.885005418,10.03953018,11.23059516,11.36710106,0.132883522,0.153023517,10.05863042,10.05863042,0.412847756,0.860641925,28.83603538,28.80068703,10.09230474,26,18,99,79,1.77051974,1
923.0078122,9.885297196,10.04588151,11.2609789,11.36856024,0.134190086,0.152155115,10.06259774,10.06259774,0.412873708,0.860753035,28.83492443,28.799271,10.09230474,26,18,99,79,1.77051974,1
924.0078122,9.883566713,10.05282753,11.24815108,11.37300753,0.137081894,0.150323089,10.07595749,10.07595749,0.412893939,0.860867216,28.83374481,28.79778197,10.06848536,26,18,99,79,1.77051974,1
925.0078122,9.88078223,10.05874796,11.19830246,11.35815801,0.140320115,0.148375583,10.09603093,10.09603093,0.412922938,0.860981949,28.83247305,28.7963468,10.06848536,26,18,99,79,1.77051974,1
926.0078122,9.878151795,10.06246216,11.14817407,11.31317157,0.142827572,0.147364188,10.12292901,10.12292901,0.412954616,0.861102439,28.83131863,28.79507068,10.0443664,27,18,99,79,1.77051974,1
927.0078122,9.87638413,10.06599288,11.12449533,11.24625555,0.144050034,0.148009811,10.1729777,10.1729777,0.41297052,0.861223232,28.83015033,28.79378561,10.0443664,27,18,99,79,1.77051974,1
928.0078122,9.875466422,10.07314577,11.13309443,11.18145434,0.144069022,0.150638408,10.25836916,10.25836916,0.412988911,0.861346791,28.82883054,28.79245567,10.01911939,27,18,99,78,1.77051974,1
929.0078122,9.87524238,10.08351267,11.16125516,11.14543396,0.1434435,0.155290382,10.34811353,10.34811353,0.41300582,0.861481348,28.82738929,28.79120449,10.01911939,27,18,99,78,1.77051974,1
930.0078122,9.876165095,10.09099701,11.19482175,11.14769897,0.142888136,0.161450874,10.37205603,10.37205603,0.413023289,0.861610635,28.82605464,28.78998709,9.991852517,27,18,99,78,1.77051974,1
931.0078122,9.878997115,10.09035035,11.24333927,11.17768181,0.142947808,0.167558562,10.29617205,10.29617205,0.413038278,0.861744479,28.82482912,28.78875119,9.991852517,27,18,99,78,1.77051974,1
932.0078122,9.8833451,10.08287193,11.32304019,11.22938061,0.143724468,0.171247336,10.172039,10.172039,0.413048505,0.861872822,28.82372326,28.78750711,9.991852517,27,18,99,78,1.77051974,1
933.0078122,9.88692127,10.07399852,11.41358344,11.315942,0.144779509,0.170709823,10.07368427,10.07368427,0.413065469,0.862007073,28.82255396,28.78626602,9.961662547,27,18,99,78,1.77051974,1
934.0078122,9.887232786,10.06729353,11.46141996,11.43009544,0.145392591,0.166088887,10.01953899,10.01953899,0.413066495,0.862142593,28.82137559,28.78501108,9.961662547,27,18,99,78,1.77051974,1
935.0078122,9.884402984,10.06194143,11.44203215,11.51599714,0.145108595,0.159445305,9.988716509,9.988716509,0.413070009,0.862277472,28.82015218,28.78374299,9.927711992,27,18,99,78,1.77051974,1
936.0078122,9.880875498,10.05535503,11.38946984,11.5374842,0.144089627,0.153308463,9.971896136,9.971896136,0.413069663,0.862397873,28.81885788,28.78261012,9.889333076,27,18,99,78,1.77051974,1
937.0078122,9.87806872,10.04820564,11.34233247,11.52376853,0.142843529,0.14924054,9.975430098,9.975430098,0.413049723,0.862496789,28.81758881,28.78144652,9.889333076,27,18,99,78,1.77051974,1
938.0078122,9.87577238,10.04473919,11.30608474,11.50938818,0.141602376,0.1475349,9.998982414,9.998982414,0.413010283,0.86263269,28.81630448,28.78022043,9.846152106,26,18,99,77,1.77051974,1
939.0078122,9.874106247,10.04637533,11.27789223,11.50445432,0.14012086,0.147829585,10.02617675,10.02617675,0.413000429,0.862763094,28.8149409,28.77899561,9.846152106,26,18,99,77,1.77051974,1
940.0078122,9.873711032,10.04915047,11.26137976,11.51809376,0.138163296,0.149711125,10.03527835,10.03527835,0.412991939,0.862900159,28.81364925,28.7778444,9.846152106,26,18,99,77,1.77051974,1
941.0078122,9.874872961,10.04982119,11.26192641,11.55157653,0.13601356,0.152768295,10.01946323,10.01946323,0.412978219,0.863030984,28.81238364,28.77673924,9.798219673,26,18,99,77,1.77051974,1
942.0078122,9.877031734,10.04966703,11.27916822,11.59060619,0.134341145,0.156264658,9.990402295,9.990402295,0.412966471,0.863164799,28.81127459,28.77559594,9.798219673,26,18,99,77,1.77051974,1
943.0078122,9.879060252,10.05006466,11.29667295,11.61608866,0.133589348,0.159106845,9.960747246,9.960747246,0.412945579,0.863299775,28.8101822,28.77447593,9.746125615,26,18,99,77,1.77051974,1
944.0078122,9.880252589,10.04887872,11.29885936,11.60577978,0.133670868,0.160418815,9.936434903,9.936434903,0.412929205,0.863435912,28.80893916,28.77332428,9.746125615,26,18,99,77,1.77051974,1
945.0078122,9.880627454,10.04314967,11.29021982,11.54598872,0.134203552,0.16020796,9.922035339,9.922035339,0.412901926,0.863575028,28.80772779,28.77217809,9.691074791,26,18,99,77,1.77051974,1
946.0078122,9.880622019,10.03416913,11.27863681,11.45782956,0.134833913,0.159249338,9.919659166,9.919659166,0.412868918,0.863714072,28.80645373,28.77091615,9.691074791,26,18,99,77,1.77051974,1
947.0078122,9.880820041,10.02845043,11.2600013,11.39261865,0.135284675,0.158180981,9.928894551,9.928894551,0.412836212,0.86384336,28.80523785,28.76969088,9.691074791,26,18,99,77,1.77051974,1
948.0078122,9.881788855,10.03147203,11.22923564,11.3862801,0.135311218,0.156846252,9.951812532,9.951812532,0.412799467,0.863977122,28.80405945,28.76850815,9.634901642,26,18,99,77,1.77051974,1
949.0078122,9.883674741,10.04145262,11.19799718,11.41874208,0.134846194,0.154646033,9.988195626,9.988195626,0.412756178,0.8641077,28.80300201,28.76728303,9.634901642,26,18,99,77,1.77051974,1
950.0078122,9.885673402,10.0517309,11.18972558,11.43569193,0.134183152,0.15140586,10.02970678,10.02970678,0.412715133,0.86422412,28.80193779,28.7659742,9.580008366,25,17,99,76,1.77051974,1
951.0078122,9.886385268,10.05813693,11.2137752,11.42390274,0.133858683,0.147721139,10.06991719,10.06991719,0.412666752,0.86434161,28.80073402,28.76479233,9.580008366,25,17,99,76,1.77051974,1
952.0078122,9.884873871,10.06025374,11.25500243,11.41949544,0.134259069,0.144523223,10.10701465,10.10701465,0.412624621,0.864458274,28.79951678,28.76371118,9.529222555,25,17,99,76,1.77051974,1
953.0078122,9.881103296,10.05753388,11.28376247,11.43163985,0.135332952,0.142510186,10.13239137,10.13239137,0.412585067,0.864570247,28.79834354,28.76241727,9.529222555,25,17,99,76,1.77051974,1
954.0078122,9.875527607,10.0499828,11.27154507,11.43458857,0.136667211,0.14197107,10.14013579,10.14013579,0.412538893,0.864680339,28.79712879,28.76098619,9.529222555,25,17,99,76,1.77051974,1
955.0078122,9.869512733,10.04092368,11.21514031,11.4270898,0.137804704,0.142898032,10.13717166,10.13717166,0.412487609,0.864799987,28.79595638,28.75972056,9.529222555,25,17,99,76,1.77051974,1
956.0078122,9.865677383,10.03537468,11.15042122,11.43344521,0.138579926,0.145011501,10.12376465,10.12376465,0.412434413,0.86491115,28.7947407,28.75846935,9.485583318,25,17,99,76,1.77051974,1
957.0078122,9.865619032,10.03585953,11.12451745,11.46049181,0.139231623,0.147740161,10.09308094,10.09308094,0.412385826,0.865019905,28.79354169,28.75717662,9.485583318,25,17,99,76,1.77051974,1
958.0078122,9.867962238,10.04035993,11.14891904,11.48630192,0.140144442,0.15034975,10.05367574,10.05367574,0.412341236,0.865123977,28.79228294,28.75590556,9.485583318,25,17,99,76,1.77051974,1
959.0078122,9.870415045,10.04505195,11.18892456,11.48766272,0.14135577,0.152253382,10.02274892,10.02274892,0.412294947,0.865228236,28.79098355,28.75460291,9.485583318,25,17,99,76,1.77051974,1
960.0078122,9.87289521,10.04849226,11.19754773,11.46468217,0.142348145,0.15331371,10.0133532,10.0133532,0.412260142,0.865328924,28.78981244,28.75330544,9.452077898,25,17,99,76,1.77051974,1
961.0078122,9.877220529,10.05165896,11.1562938,11.4316017,0.142467495,0.153911448,10.03561876,10.03561876,0.412221923,0.865424632,28.78863031,28.75196192,9.452077898,25,17,99,76,1.77051974,1
962.0078122,9.883848339,10.05542669,11.09825172,11.39492104,0.141534816,0.154679483,10.08393224,10.08393224,0.412171371,0.865519667,28.78743727,28.75054264,9.452077898,25,17,99,76,1.77051974,1
963.0078122,9.890278982,10.05945687,11.08680557,11.3557054,0.139945761,0.15607512,10.12826995,10.12826995,0.412121225,0.86561458,28.78625546,28.74913526,9.431360881,25,17,99,76,1.77051974,1
964.0078122,9.893004381,10.06221619,11.13373229,11.31918951,0.138265053,0.158158987,10.13408812,10.13408812,0.412093095,0.865708857,28.78512279,28.74782965,9.431360881,25,17,99,76,1.77051974,1
965.0078122,9.890591593,10.06209157,11.16883366,11.2880743,0.136890611,0.160687238,10.09002482,10.09002482,0.412058792,0.865800975,28.78397127,28.74649404,9.425493151,24,17,99,75,1.77051974,1
966.0078122,9.885285779,10.05902528,11.15129304,11.26761231,0.135997542,0.16319542,10.02052155,10.02052155,0.412027601,0.865899447,28.78275699,28.74509374,9.425493151,24,17,99,75,1.77051974,1
967.0078122,9.881042172,10.05404498,11.13229368,11.27171423,0.135537253,0.164929173,9.967079437,9.967079437,0.411992655,0.865996985,28.78147358,28.74379161,9.435736558,24,17,99,75,1.77051974,1
968.0078122,9.879398374,10.04782167,11.15159984,11.30287389,0.135282629,0.164939727,9.949967808,9.949967808,0.411964756,0.86609764,28.78018928,28.74256043,9.435736558,24,17,99,75,1.77051974,1
969.0078122,9.878987524,10.04197192,11.17703024,11.34348991,0.135063085,0.162648828,9.95902123,9.95902123,0.411939682,0.866194301,28.77885265,28.74126355,9.435736558,24,17,99,75,1.77051974,1
970.0078122,9.879108227,10.03981689,11.16835782,11.37016601,0.135080142,0.158431648,9.977814638,9.977814638,0.411909966,0.866285893,28.77752094,28.73991448,9.462432798,24,17,99,75,1.77051974,1
971.0078122,9.880274203,10.04187973,11.12479461,11.36965279,0.13595664,0.153638422,9.996126008,9.996126008,0.411875724,0.866381618,28.7762152,28.73865463,9.462432798,24,17,99,75,1.77051974,1
972.0078122,9.88159342,10.04443003,11.0756533,11.35276102,0.138371915,0.149970382,10.0016276,10.0016276,0.411844825,0.866478647,28.77494583,28.73745916,9.504982405,24,17,99,75,1.77051974,1
973.0078122,9.881139072,10.04538478,11.05188004,11.34508568,0.142433257,0.148606746,9.982602901,9.982602901,0.411820381,0.866572544,28.77369471,28.73621232,9.504982405,24,17,99,75,1.77051974,1
974.0078122,9.878598076,10.04652668,11.06087296,11.35648213,0.147198282,0.149570486,9.944970101,9.944970101,0.411792066,0.866659928,28.77243491,28.73489302,9.504982405,24,17,99,75,1.77051974,1
975.0078122,9.87583369,10.0498949,11.09918933,11.37378878,0.150938477,0.151711687,9.910593967,9.910593967,0.411757166,0.866751151,28.77110099,28.73357485,9.561924445,24,17,99,75,1.77051974,1
976.0078122,9.874512091,10.05539745,11.16746315,11.38010877,0.152270381,0.153400666,9.894566183,9.894566183,0.411709791,0.866843621,28.76977081,28.73226619,9.561924445,24,17,99,75,1.77051974,1
977.0078122,9.874252135,10.06100757,11.24359688,11.36985138,0.151184917,0.15353998,9.897615051,9.897615051,0.411663749,0.866929024,28.76846396,28.73092611,9.631102081,24,17,99,75,1.77051974,1
978.0078122,9.873956781,10.06460561,11.28602716,11.35386712,0.148809866,0.1521832,9.920550078,9.920550078,0.411630349,0.867030372,28.76722616,28.72968563,9.631102081,24,17,99,75,1.77051974,1
