Time (s),Waist Acceleration,Chest Acceleration,Left Ankle Acceleration,right Ankle Acceleration,EMG_magnitude_left,EMG_magnitude_right,left wrist Acceleration,right wrist Acceleration,left wrist electrodermal,right wrist electrodermal,left wrist Temperature,right wrist Temperature,VO2,Breath Frequency,Minute Ventilation,SpO2,Heart Rate,Energy expenditures (W/kg) ,Activity Code
365.0078122,9.871141046,9.870626059,9.773508256,9.714183941,0.102332704,0.084208694,9.647810266,9.647810266,0.537494101,0.24039466,31.75773992,31.40068687,4.499210355,5,7,99,61,4.125352763,3
366.0078122,9.871762962,9.871202381,9.778057046,9.716219637,0.102595646,0.083472687,9.654103483,9.654103483,0.537596327,0.240448577,31.75303835,31.39888701,4.499210355,5,7,99,61,4.125352763,3
367.0078122,9.872195168,9.872168381,9.798569126,9.728654693,0.106043581,0.088824217,9.674581816,9.674581816,0.537693843,0.240495519,31.74852592,31.39719676,4.499210355,5,7,99,61,4.125352763,3
368.0078122,9.873532252,9.875781272,9.862644102,9.777503019,0.114201657,0.103709708,9.716909324,9.716909324,0.537795168,0.240542796,31.74416506,31.39561575,4.499210355,5,7,99,61,4.125352763,3
369.0078122,9.87780725,9.887165365,10.0160481,9.91163115,0.127820983,0.128518182,9.779166906,9.779166906,0.53788947,0.24059107,31.74002069,31.39414307,10.71817711,7,13,98,80,4.125352763,3
370.0078122,9.885898253,9.912429134,10.3073549,10.18196868,0.146576135,0.15984935,9.849821684,9.849821684,0.537987886,0.240636352,31.73606297,31.3928667,10.71817711,7,13,98,80,4.125352763,3
371.0078122,9.896832085,9.955785192,10.74971213,10.60735524,0.169094739,0.192178727,9.91559451,9.91559451,0.53807885,0.240676642,31.73235769,31.39177642,10.71817711,7,13,98,80,4.125352763,3
372.0078122,9.909588195,10.0185568,11.29550676,11.16711788,0.193386582,0.220898727,9.969719647,9.969719647,0.538165163,0.240725367,31.72882899,31.39071918,10.71817711,7,13,98,80,4.125352763,3
373.0078122,9.922859658,10.09716303,11.87111571,11.81075184,0.217130338,0.243951722,10.01444427,10.01444427,0.538252181,0.240758895,31.72531573,31.38978746,10.71817711,7,13,98,80,4.125352763,3
374.0078122,9.933590287,10.1779336,12.41104321,12.45507134,0.238133791,0.26162824,10.05724889,10.05724889,0.538331503,0.240801869,31.7218444,31.38891476,10.71817711,7,13,98,80,4.125352763,3
375.0078122,9.938862188,10.23788008,12.84317322,12.99601053,0.254776783,0.274977723,10.10588966,10.10588966,0.538403,0.24084058,31.71857341,31.3881054,10.71817711,7,13,98,80,4.125352763,3
376.0078122,9.939048443,10.2616527,13.11622222,13.35137375,0.266602083,0.284683049,10.16499147,10.16499147,0.538474117,0.240874024,31.71538431,31.3875682,10.71817711,7,13,98,80,4.125352763,3
377.0078122,9.937349897,10.25812747,13.24906174,13.50442618,0.274514268,0.291016524,10.22947857,10.22947857,0.538535238,0.240905619,31.71229136,31.38709466,10.71817711,7,13,98,80,4.125352763,3
378.0078122,9.936594559,10.25037964,13.2990122,13.52043461,0.280127125,0.294351747,10.27886882,10.27886882,0.5385982,0.240945492,31.70927641,31.38663103,10.71817711,7,13,98,80,4.125352763,3
379.0078122,9.937850855,10.25240382,13.3105195,13.50686575,0.284669056,0.295489154,10.28896789,10.28896789,0.538661875,0.240978978,31.706445,31.38633825,10.79992425,7,13,98,80,4.125352763,3
380.0078122,9.940977312,10.2619598,13.31181955,13.53506989,0.288353578,0.29548293,10.2554413,10.2554413,0.538720634,0.24101309,31.70365327,31.38600567,10.79992425,7,13,98,80,4.125352763,3
381.0078122,9.944754152,10.26856326,13.31429041,13.6069009,0.290610499,0.295164822,10.19840205,10.19840205,0.538766454,0.241053037,31.70095285,31.3857118,10.79992425,7,13,98,80,4.125352763,3
382.0078122,9.94742639,10.26411197,13.31182759,13.68544223,0.29077832,0.294868742,10.14312437,10.14312437,0.53881263,0.241081174,31.69827791,31.38550501,10.79992425,7,13,98,80,4.125352763,3
383.0078122,9.948312864,10.25003354,13.30877793,13.72807544,0.288667342,0.29460393,10.10170266,10.10170266,0.538853126,0.241118764,31.69568049,31.38536175,10.79992425,7,13,98,80,4.125352763,3
384.0078122,9.94850041,10.23460621,13.32834589,13.70692519,0.284783752,0.294330764,10.07036333,10.07036333,0.538885506,0.241155703,31.69317266,31.38531692,10.79992425,7,13,98,80,4.125352763,3
385.0078122,9.949694071,10.22395117,13.37503477,13.63289111,0.280248197,0.293971588,10.04158992,10.04158992,0.538925738,0.241194129,31.69068695,31.38534493,10.79992425,7,13,98,80,4.125352763,3
386.0078122,9.952636816,10.21884485,13.41915484,13.55104094,0.276475998,0.293351871,10.01698379,10.01698379,0.538960967,0.24123158,31.68829307,31.38542845,10.79992425,7,13,98,80,4.125352763,3
387.0078122,9.956679757,10.21865615,13.43433205,13.50024416,0.274582493,0.292374861,10.00431671,10.00431671,0.538988868,0.24127489,31.686039,31.38559814,10.79992425,7,13,98,80,4.125352763,3
388.0078122,9.960352596,10.22376913,13.42346516,13.48498772,0.274919054,0.291251103,10.00767244,10.00767244,0.539017764,0.241304565,31.68379418,31.38576715,10.95938046,7,13,98,81,4.125352763,3
389.0078122,9.962068973,10.23287733,13.40059139,13.48661746,0.277110974,0.29039291,10.02595696,10.02595696,0.539048852,0.241333155,31.68152323,31.38586822,10.95938046,7,13,98,81,4.125352763,3
390.0078122,9.961067783,10.24015351,13.37267852,13.49663239,0.280504423,0.289993622,10.05451975,10.05451975,0.539076986,0.241355947,31.67941104,31.38602742,10.95938046,7,13,98,81,4.125352763,3
391.0078122,9.957689734,10.23925124,13.34342078,13.52757673,0.284489181,0.289745093,10.08786776,10.08786776,0.53910078,0.241384542,31.67732808,31.38618018,10.95938046,7,13,98,81,4.125352763,3
392.0078122,9.952549372,10.23173453,13.31927169,13.58711485,0.288418861,0.289066511,10.12358727,10.12358727,0.539119991,0.241417412,31.67524952,31.38647068,10.95938046,7,13,98,81,4.125352763,3
393.0078122,9.946524312,10.22577785,13.30406299,13.65566572,0.291443912,0.287652204,10.15909613,10.15909613,0.539139945,0.241455273,31.67321385,31.3867604,10.95938046,7,13,98,81,4.125352763,3
394.0078122,9.941339246,10.22522056,13.29637871,13.69605234,0.292653486,0.285723939,10.18825994,10.18825994,0.539155827,0.241493209,31.67119325,31.38714419,10.95938046,7,13,98,81,4.125352763,3
395.0078122,9.938865742,10.22728173,13.3015671,13.68459411,0.291478372,0.283723224,10.20719736,10.20719736,0.539167785,0.241532783,31.66928818,31.38750147,10.95938046,7,13,98,81,4.125352763,3
396.0078122,9.939779303,10.23025502,13.33359813,13.64055212,0.288035708,0.281892901,10.2197676,10.2197676,0.53918175,0.241573084,31.66746789,31.38787495,11.18864884,8,14,98,81,4.125352763,3
397.0078122,9.943255989,10.23647368,13.3949951,13.61623997,0.283221677,0.280249443,10.23232337,10.23232337,0.539191001,0.241611722,31.66569392,31.38828609,11.18864884,8,14,98,81,4.125352763,3
398.0078122,9.947397293,10.24764115,13.46374299,13.64353856,0.278496764,0.278832743,10.2414392,10.2414392,0.539205626,0.24164931,31.66392488,31.38877192,11.18864884,8,14,98,81,4.125352763,3
399.0078122,9.949685576,10.26095991,13.50951712,13.71162106,0.275489021,0.277883579,10.23530895,10.23530895,0.539211455,0.241684508,31.66217832,31.38926333,11.18864884,8,14,98,81,4.125352763,3
400.0078122,9.948324147,10.27048565,13.5223938,13.79268494,0.275417603,0.277843404,10.21519807,10.21519807,0.539224416,0.241720681,31.66053753,31.38980649,11.18864884,8,14,98,81,4.125352763,3
401.0078122,9.944095781,10.27134934,13.51912325,13.8525567,0.278571131,0.279282311,10.20078802,10.20078802,0.53923892,0.241766498,31.65898197,31.39036447,11.18864884,8,14,98,81,4.125352763,3
402.0078122,9.940242065,10.26327968,13.52085469,13.8631525,0.284009924,0.282629776,10.20244007,10.20244007,0.539252666,0.241801175,31.65747923,31.39088707,11.18864884,8,14,98,81,4.125352763,3
403.0078122,9.939785564,10.25100521,13.5328637,13.83263955,0.289783339,0.28769262,10.20577357,10.20577357,0.539269834,0.241837005,31.65595864,31.3914415,11.18864884,8,14,98,81,4.125352763,3
404.0078122,9.942930691,10.24121804,13.54292991,13.79465248,0.293891772,0.293467035,10.19452046,10.19452046,0.539292321,0.241869641,31.65456795,31.39190746,11.47637386,8,14,98,81,4.125352763,3
405.0078122,9.947333127,10.23768677,13.53150754,13.77095243,0.295600082,0.29875516,10.17119568,10.17119568,0.539313133,0.241909771,31.65312494,31.39238629,11.47637386,8,14,98,81,4.125352763,3
406.0078122,9.950685838,10.2375776,13.50070898,13.76790401,0.295945981,0.303083637,10.14799786,10.14799786,0.539331943,0.241938821,31.65174285,31.39297907,11.47637386,8,14,98,81,4.125352763,3
407.0078122,9.952312292,10.23435787,13.48494055,13.79016653,0.29668203,0.306711185,10.13187152,10.13187152,0.539353643,0.241968478,31.6504676,31.39355383,11.47637386,8,14,98,81,4.125352763,3
408.0078122,9.952970399,10.22442392,13.4992706,13.82855894,0.298510429,0.309557495,10.12197184,10.12197184,0.539364455,0.242003882,31.64939684,31.3940563,11.47637386,8,14,98,81,4.125352763,3
409.0078122,9.953281043,10.20800904,13.50211359,13.84850457,0.300362112,0.310517752,10.11380709,10.11380709,0.539382064,0.242040371,31.64852537,31.39456573,11.8084144,8,14,98,82,4.125352763,3
410.0078122,9.952038386,10.18882582,13.44571708,13.82714956,0.300356673,0.308299024,10.10736096,10.10736096,0.539400911,0.242067552,31.64764345,31.39517706,11.8084144,8,14,98,82,4.125352763,3
411.0078122,9.948576336,10.17627765,13.34481168,13.78380856,0.297371209,0.302859387,10.11117992,10.11117992,0.539419801,0.242094917,31.64675828,31.39585412,11.8084144,8,14,98,82,4.125352763,3
412.0078122,9.945493735,10.1791079,13.25893917,13.7425914,0.291814129,0.295679587,10.12995535,10.12995535,0.539434359,0.242116358,31.6460073,31.39657506,11.8084144,8,14,98,82,4.125352763,3
413.0078122,9.945023249,10.19427288,13.22260764,13.69769515,0.285301816,0.288725646,10.1510141,10.1510141,0.539448449,0.242140673,31.64539252,31.39737655,11.8084144,8,14,98,82,4.125352763,3
414.0078122,9.945951156,10.20889463,13.23290722,13.63253027,0.279688259,0.283207363,10.15501906,10.15501906,0.539471606,0.242164473,31.6446801,31.39825663,11.8084144,8,14,98,82,4.125352763,3
415.0078122,9.946613337,10.21396033,13.27846605,13.5522408,0.276108042,0.279179263,10.13926299,10.13926299,0.539497359,0.242189532,31.64406668,31.39917152,11.8084144,8,14,98,82,4.125352763,3
416.0078122,9.946871291,10.21181947,13.34003529,13.48890449,0.274492177,0.27599296,10.12178277,10.12178277,0.539523162,0.242215058,31.6435896,31.39994879,12.1688072,8,14,98,82,4.125352763,3
417.0078122,9.94661203,10.21007892,13.38635172,13.46595355,0.273850652,0.273174054,10.12106983,10.12106983,0.539550125,0.242236941,31.64326427,31.40076312,12.1688072,8,14,98,82,4.125352763,3
418.0078122,9.945471607,10.21307217,13.39907401,13.47125321,0.273156405,0.27109263,10.13659203,10.13659203,0.539577993,0.242252485,31.64295896,31.40151327,12.1688072,8,14,98,82,4.125352763,3
419.0078122,9.943882251,10.21942603,13.39449744,13.4847878,0.272139842,0.270831742,10.15153879,10.15153879,0.539604611,0.242267511,31.64275463,31.40236508,12.1688072,8,14,98,82,4.125352763,3
420.0078122,9.942661439,10.22459283,13.40471782,13.50975652,0.271366829,0.27331855,10.15129794,10.15129794,0.539638974,0.24228184,31.64275441,31.40319404,12.1688072,8,14,98,82,4.125352763,3
421.0078122,9.94217031,10.22621044,13.43367237,13.55810854,0.271640698,0.278515309,10.13487447,10.13487447,0.539669842,0.242297305,31.64276156,31.40401234,12.1688072,8,14,98,82,4.125352763,3
422.0078122,9.942811192,10.2264346,13.44662977,13.62491839,0.27328236,0.285314852,10.10831998,10.10831998,0.539697628,0.242305435,31.6429069,31.40484455,12.1688072,8,14,98,82,4.125352763,3
423.0078122,9.94475532,10.22775027,13.4086552,13.68565897,0.27578203,0.292055056,10.07653971,10.07653971,0.539724192,0.24230526,31.64313803,31.40571248,12.1688072,8,14,98,82,4.125352763,3
424.0078122,9.946527545,10.22814391,13.3200697,13.70181824,0.278012372,0.297238859,10.04470542,10.04470542,0.539754094,0.242297086,31.64342053,31.406583,12.54096474,8,15,98,82,4.125352763,3
425.0078122,9.94611306,10.22310447,13.22130222,13.64821416,0.278913606,0.30020049,10.0172106,10.0172106,0.539787076,0.242295586,31.64375676,31.40752509,12.54096474,8,15,98,82,4.125352763,3
426.0078122,9.943866443,10.21299954,13.16815396,13.55428654,0.278130576,0.301387031,9.996027031,9.996027031,0.539823844,0.242296236,31.64417968,31.40844965,12.54096474,8,15,98,82,4.125352763,3
427.0078122,9.942322954,10.2045642,13.18698803,13.48307298,0.276015174,0.302081028,9.98716529,9.98716529,0.539857443,0.242295469,31.64467789,31.40938674,12.54096474,8,15,98,82,4.125352763,3
428.0078122,9.942997601,10.20227314,13.26212953,13.47175408,0.27295357,0.303506055,10.0016366,10.0016366,0.539887849,0.242287318,31.64526758,31.4102836,12.54096474,8,15,98,82,4.125352763,3
429.0078122,9.944713222,10.20209396,13.36152738,13.51790251,0.268913528,0.305933962,10.0415727,10.0415727,0.53991604,0.242283954,31.64599081,31.41122681,12.54096474,8,15,98,82,4.125352763,3
430.0078122,9.945170678,10.19785157,13.44167583,13.58709671,0.263886449,0.308542933,10.09163975,10.09163975,0.539949083,0.242269874,31.64670505,31.41224638,12.54096474,8,15,98,82,4.125352763,3
431.0078122,9.943453737,10.18983505,13.46135527,13.62330855,0.258646789,0.310110535,10.13294596,10.13294596,0.539978526,0.242252333,31.64746087,31.41322121,12.54096474,8,15,98,82,4.125352763,3
432.0078122,9.940824865,10.1820304,13.43755896,13.59387527,0.25466459,0.30974289,10.15843048,10.15843048,0.540012756,0.242244215,31.6482885,31.41425854,12.90897043,8,15,98,83,4.125352763,3
433.0078122,9.939366548,10.17680473,13.4348165,13.52343311,0.25302649,0.307015096,10.16999603,10.16999603,0.540045436,0.242233714,31.64922451,31.41527509,12.90897043,8,15,98,83,4.125352763,3
434.0078122,9.939950959,10.17649969,13.47161552,13.46502137,0.253529523,0.301908103,10.17131028,10.17131028,0.540070852,0.242219789,31.65034681,31.4162962,12.90897043,8,15,98,83,4.125352763,3
435.0078122,9.941452723,10.18205017,13.50361109,13.44886783,0.254959752,0.295064245,10.16792266,10.16792266,0.540098428,0.242197455,31.65146449,31.41727501,12.90897043,8,15,98,83,4.125352763,3
436.0078122,9.942423731,10.18879608,13.4974158,13.4637482,0.256174551,0.287943765,10.16740957,10.16740957,0.540126579,0.242183733,31.65266481,31.4182259,12.90897043,8,15,98,83,4.125352763,3
437.0078122,9.943305437,10.1917041,13.4603771,13.48601246,0.256795289,0.282218873,10.17189421,10.17189421,0.540154152,0.242166909,31.65390852,31.41920463,12.90897043,8,15,98,83,4.125352763,3
438.0078122,9.945574708,10.19291269,13.41424772,13.51656488,0.257003529,0.278711429,10.17315969,10.17315969,0.540181859,0.242151783,31.65516665,31.42022113,12.90897043,8,15,98,83,4.125352763,3
439.0078122,9.949105386,10.19762496,13.38022012,13.56476565,0.256996517,0.276995386,10.16315419,10.16315419,0.54020115,0.242123758,31.65647245,31.42116616,12.90897043,8,15,98,83,4.125352763,3
440.0078122,9.952107056,10.20651,13.37434994,13.60866557,0.256790237,0.27595817,10.14602869,10.14602869,0.540222342,0.242095216,31.65786504,31.42224947,13.25877944,9,15,97,83,4.125352763,3
441.0078122,9.953313087,10.21669118,13.39926676,13.60834233,0.256394977,0.274734375,10.13280595,10.13280595,0.540244917,0.242070989,31.65928072,31.42332241,13.25877944,9,15,97,83,4.125352763,3
442.0078122,9.952868131,10.22417835,13.44667619,13.55911458,0.255998343,0.273046417,10.12759622,10.12759622,0.540263172,0.242056831,31.66081573,31.42432094,13.25877944,9,15,97,83,4.125352763,3
443.0078122,9.951290737,10.22269508,13.50004743,13.51008598,0.255914301,0.27087021,10.12518219,10.12518219,0.540282938,0.24203507,31.66246147,31.42531369,13.25877944,9,15,97,83,4.125352763,3
444.0078122,9.948858229,10.20919771,13.53292517,13.51730945,0.256339546,0.268174704,10.12170234,10.12170234,0.540310065,0.242010321,31.66414603,31.42629968,13.25877944,9,15,97,83,4.125352763,3
445.0078122,9.946332667,10.19331423,13.52778994,13.58486093,0.257112293,0.265190942,10.12097299,10.12097299,0.540330712,0.241982824,31.6659126,31.42721031,13.25877944,9,15,97,83,4.125352763,3
446.0078122,9.945053711,10.19208955,13.4921122,13.66097287,0.257688777,0.262711637,10.12690139,10.12690139,0.540352411,0.241964464,31.66769921,31.4281121,13.25877944,9,15,97,83,4.125352763,3
447.0078122,9.945439471,10.21209143,13.44249244,13.68876447,0.25743389,0.261782658,10.13617262,10.13617262,0.540366064,0.241944841,31.66946066,31.4291015,13.25877944,9,15,97,83,4.125352763,3
448.0078122,9.946296518,10.24158472,13.39617417,13.66297506,0.256060029,0.262965941,10.14168098,10.14168098,0.540387321,0.241928574,31.67131396,31.429953,13.57913387,9,16,97,83,4.125352763,3
449.0078122,9.946430962,10.26152112,13.37625525,13.62855567,0.253859566,0.265839434,10.13954684,10.13954684,0.540406619,0.241919116,31.67323462,31.43080645,13.57913387,9,16,97,83,4.125352763,3
450.0078122,9.94597191,10.26226572,13.39912267,13.62008514,0.251530024,0.269068145,10.13130222,10.13130222,0.540422467,0.241909745,31.67523479,31.43167917,13.57913387,9,16,97,83,4.125352763,3
451.0078122,9.945777504,10.24941325,13.45737968,13.63241984,0.249751496,0.271011801,10.12132454,10.12132454,0.540439477,0.241897708,31.67722672,31.43257763,13.57913387,9,16,97,83,4.125352763,3
452.0078122,9.946555371,10.23545627,13.51682227,13.64717339,0.248909521,0.270607785,10.11490101,10.11490101,0.540455441,0.241888532,31.67931382,31.43343593,13.57913387,9,16,97,83,4.125352763,3
453.0078122,9.948485554,10.22909838,13.5405022,13.65221863,0.249071449,0.268102313,10.11563342,10.11563342,0.540475428,0.241877611,31.68144554,31.43419383,13.57913387,9,16,97,83,4.125352763,3
454.0078122,9.950948431,10.23140185,13.52429781,13.64054438,0.250092739,0.264929235,10.1194427,10.1194427,0.540492268,0.241864822,31.68368024,31.43490364,13.86206083,9,16,97,83,4.125352763,3
455.0078122,9.952658299,10.23633853,13.48994263,13.61177577,0.25162441,0.262734832,10.11389948,10.11389948,0.540504996,0.241848367,31.68589531,31.43571548,13.86206083,9,16,97,83,4.125352763,3
456.0078122,9.952400732,10.23485574,13.45293889,13.5723688,0.253067042,0.262377602,10.08909829,10.08909829,0.54052318,0.24182445,31.68803193,31.43652082,13.86206083,9,16,97,83,4.125352763,3
457.0078122,9.949974707,10.22391228,13.42162991,13.52921608,0.253718789,0.263677465,10.04982593,10.04982593,0.540544757,0.241810561,31.69014818,31.43726763,13.86206083,9,16,97,83,4.125352763,3
458.0078122,9.946895936,10.21115823,13.40575556,13.48914592,0.253188565,0.265833952,10.01512437,10.01512437,0.540559258,0.241793369,31.69235059,31.43795192,13.86206083,9,16,97,83,4.125352763,3
459.0078122,9.945810953,10.20694342,13.40724483,13.46599263,0.251742977,0.267948472,10.0048332,10.0048332,0.54057846,0.241786102,31.69472647,31.43856407,13.86206083,9,16,97,83,4.125352763,3
460.0078122,9.947929541,10.21336833,13.42152428,13.47478239,0.250181985,0.269377348,10.02340259,10.02340259,0.540591919,0.241771412,31.69712331,31.43916897,14.10292263,10,16,97,83,4.125352763,3
461.0078122,9.95109537,10.22376818,13.44680836,13.51235902,0.249307284,0.270004435,10.05289846,10.05289846,0.540604437,0.241755465,31.69942047,31.4397118,14.10292263,10,16,97,83,4.125352763,3
462.0078122,9.951945414,10.23150264,13.4749706,13.56045585,0.249483604,0.270424141,10.06487578,10.06487578,0.540618137,0.241751774,31.70161266,31.44024635,14.10292263,10,16,97,83,4.125352763,3
463.0078122,9.950024827,10.2356053,13.49437278,13.60491706,0.250628656,0.271780892,10.04535802,10.04535802,0.540624919,0.241745504,31.70385378,31.44076833,14.10292263,10,16,97,83,4.125352763,3
464.0078122,9.948097712,10.23756352,13.51857497,13.62819072,0.252484276,0.275139087,10.00779021,10.00779021,0.540628041,0.24174368,31.70616951,31.44124525,14.10292263,10,16,97,83,4.125352763,3
465.0078122,9.94809994,10.23771641,13.57577242,13.60734485,0.254768277,0.280646859,9.977076818,9.977076818,0.540634897,0.241740945,31.70850471,31.4417708,14.30009324,10,17,98,83,4.125352763,3
466.0078122,9.948847818,10.23606648,13.65747598,13.55363744,0.257073393,0.287075682,9.964301039,9.964301039,0.540650585,0.241733752,31.71082423,31.44218219,14.30009324,10,17,98,83,4.125352763,3
467.0078122,9.94853043,10.2327953,13.72249901,13.51852883,0.258731873,0.292158235,9.964867891,9.964867891,0.540657246,0.241725206,31.71315377,31.44259651,14.30009324,10,17,98,83,4.125352763,3
468.0078122,9.947529321,10.2289869,13.74497755,13.52670791,0.258983958,0.293703754,9.974544404,9.974544404,0.540673635,0.241711548,31.71543362,31.44302663,14.30009324,10,17,98,83,4.125352763,3
469.0078122,9.947460447,10.2274729,13.71472238,13.53708597,0.257425598,0.290857207,9.99247573,9.99247573,0.540687938,0.241713273,31.71767652,31.44341053,14.30009324,10,17,98,83,4.125352763,3
470.0078122,9.948382677,10.22840493,13.62817278,13.49781627,0.254347152,0.284558919,10.01433547,10.01433547,0.540705917,0.241704636,31.71993402,31.44366297,14.30009324,10,17,98,83,4.125352763,3
471.0078122,9.948592141,10.22729689,13.51205874,13.4158839,0.250657963,0.276808155,10.03781908,10.03781908,0.540715388,0.24170072,31.72217563,31.44381597,14.30009324,10,17,98,83,4.125352763,3
472.0078122,9.947017751,10.22207839,13.4125402,13.34581706,0.247454212,0.269428658,10.06720911,10.06720911,0.540734667,0.24168682,31.72442122,31.44398395,14.45440949,11,17,98,82,4.125352763,3
473.0078122,9.944364296,10.21594591,13.35478809,13.32858065,0.245507351,0.263428517,10.10069612,10.10069612,0.540752369,0.24167255,31.72663783,31.44422031,14.45440949,11,17,98,82,4.125352763,3
474.0078122,9.94168999,10.21088728,13.32714183,13.36032136,0.244940797,0.259239319,10.12413448,10.12413448,0.54076945,0.24165912,31.72889186,31.44442315,14.45440949,11,17,98,82,4.125352763,3
475.0078122,9.939362011,10.20537181,13.31125764,13.40999149,0.245269196,0.25717424,10.12908343,10.12908343,0.540780963,0.241647946,31.73125439,31.44457276,14.45440949,11,17,98,82,4.125352763,3
476.0078122,9.937416866,10.19834363,13.30984079,13.4444233,0.245804729,0.257472585,10.12669119,10.12669119,0.540799465,0.241635043,31.73358636,31.44478183,14.45440949,11,17,98,82,4.125352763,3
477.0078122,9.936074197,10.19213152,13.342896,13.44989621,0.246158555,0.260010073,10.13289048,10.13289048,0.540820293,0.241612352,31.73577388,31.44488555,14.45440949,11,17,98,82,4.125352763,3
478.0078122,9.935677623,10.19028978,13.40887193,13.4296332,0.246439502,0.264159191,10.1508707,10.1508707,0.540828499,0.2415888,31.73796977,31.44491986,14.56856603,12,17,98,82,4.125352763,3
479.0078122,9.936360481,10.19280232,13.46838587,13.39785652,0.247024861,0.268959323,10.17576926,10.17576926,0.540838976,0.241550585,31.74014636,31.44499588,14.56856603,12,17,98,82,4.125352763,3
480.0078122,9.937875853,10.19574025,13.48351191,13.38383799,0.248199623,0.273490399,10.20356285,10.20356285,0.540851782,0.241523876,31.74218122,31.44513807,14.56856603,12,17,98,82,4.125352763,3
481.0078122,9.939908094,10.19660936,13.45193688,13.41102285,0.250005079,0.277180106,10.22629924,10.22629924,0.54085621,0.241489445,31.74418891,31.44519877,14.56856603,12,17,98,82,4.125352763,3
482.0078122,9.942343685,10.19703402,13.39893759,13.47115252,0.252340359,0.279901918,10.2282088,10.2282088,0.540873896,0.241457694,31.74618479,31.44520349,14.56856603,12,17,98,82,4.125352763,3
483.0078122,9.944961777,10.19927504,13.36129781,13.53745788,0.255086214,0.281805573,10.20090098,10.20090098,0.540873291,0.241451963,31.74812015,31.44516939,14.56856603,12,17,98,82,4.125352763,3
484.0078122,9.947070807,10.20261267,13.35904051,13.58692063,0.25806928,0.28301658,10.15871183,10.15871183,0.540882976,0.241411412,31.74997399,31.44513315,14.64658989,12,17,98,82,4.125352763,3
485.0078122,9.947837656,10.20409058,13.36557783,13.59982903,0.260969164,0.28353053,10.12398422,10.12398422,0.540890769,0.241364282,31.75195374,31.44515952,14.64658989,12,17,98,82,4.125352763,3
486.0078122,9.947101923,10.20078977,13.34436623,13.56716852,0.263384153,0.283453126,10.10189126,10.10189126,0.540895663,0.241316979,31.75391305,31.44520449,14.64658989,12,17,98,82,4.125352763,3
487.0078122,9.945618645,10.19251537,13.30854443,13.51533023,0.264999371,0.283229541,10.08325931,10.08325931,0.540913366,0.241262853,31.75582387,31.44521688,14.64658989,12,17,98,82,4.125352763,3
488.0078122,9.944177395,10.18467844,13.30285647,13.489013,0.265593684,0.283373249,10.06412215,10.06412215,0.540928349,0.241215191,31.75771845,31.44529967,14.64658989,12,17,98,82,4.125352763,3
489.0078122,9.942768841,10.18497307,13.34474747,13.4959306,0.26491942,0.283844556,10.04947357,10.04947357,0.540945064,0.241172628,31.75955353,31.44536876,14.64658989,12,17,98,82,4.125352763,3
490.0078122,9.941275441,10.19486384,13.40581394,13.5066644,0.262830232,0.283879572,10.04512266,10.04512266,0.540968934,0.241148183,31.76147994,31.44540737,14.69346266,13,18,98,82,4.125352763,3
491.0078122,9.94037951,10.20703562,13.44019688,13.50616516,0.259713958,0.282724968,10.05145854,10.05145854,0.541002487,0.241122705,31.76336802,31.44550608,14.69346266,13,18,98,82,4.125352763,3
492.0078122,9.940836763,10.2133878,13.43164028,13.52203888,0.256729398,0.280618642,10.05680505,10.05680505,0.541035999,0.241078454,31.76515102,31.44564866,14.69346266,13,18,98,82,4.125352763,3
493.0078122,9.942455769,10.21409858,13.41047231,13.60503568,0.255273012,0.278825703,10.04248853,10.04248853,0.541075223,0.241023965,31.76695573,31.44569539,14.69346266,13,18,98,82,4.125352763,3
494.0078122,9.944214174,10.21461055,13.41388296,13.7638434,0.255950838,0.278444927,10.00630374,10.00630374,0.541112662,0.240984802,31.76869655,31.4457135,14.69346266,13,18,98,82,4.125352763,3
495.0078122,9.944989004,10.21606876,13.43625578,13.91513997,0.257968237,0.279177405,9.973189872,9.973189872,0.541154899,0.240935778,31.77052493,31.44571656,14.71488458,15,18,98,82,4.125352763,3
496.0078122,9.944540283,10.21507183,13.4318299,13.94006877,0.259612523,0.279470423,9.972731212,9.972731212,0.541187711,0.240887504,31.77235743,31.44576219,14.71488458,15,18,98,82,4.125352763,3
497.0078122,9.943702829,10.21073168,13.37386958,13.81801571,0.259517103,0.278012465,10.01234593,10.01234593,0.541223737,0.240832631,31.77409028,31.44574305,14.71488458,15,18,98,82,4.125352763,3
498.0078122,9.943064234,10.20707941,13.29380195,13.66136291,0.257663017,0.275068547,10.07714182,10.07714182,0.541267107,0.240790229,31.77584566,31.44574918,14.71488458,15,18,98,82,4.125352763,3
499.0078122,9.942500058,10.20891511,13.24203357,13.57887895,0.255348171,0.272350947,10.14631246,10.14631246,0.541315723,0.240746352,31.77761337,31.44581839,14.71488458,15,18,98,82,4.125352763,3
500.0078122,9.942116735,10.21692802,13.23610705,13.57023282,0.254297824,0.27169758,10.20181597,10.20181597,0.541354886,0.240714025,31.77938217,31.44578988,14.71712213,16,18,98,82,4.125352763,3
501.0078122,9.942150555,10.22560357,13.26617527,13.58240534,0.255637762,0.273847695,10.22835078,10.22835078,0.541398376,0.240678809,31.7810792,31.44578692,14.71712213,16,18,98,82,4.125352763,3
502.0078122,9.942227066,10.22643853,13.31948501,13.59166771,0.259236752,0.278170511,10.21948314,10.21948314,0.541446665,0.240669678,31.78266388,31.44582669,14.71712213,16,18,98,82,4.125352763,3
503.0078122,9.94175578,10.21745951,13.37845127,13.60271439,0.263652011,0.283300108,10.18457373,10.18457373,0.541492711,0.240641087,31.78424165,31.44591545,14.71712213,16,18,98,82,4.125352763,3
504.0078122,9.94069848,10.20711816,13.41162173,13.61006859,0.266932,0.288208442,10.13944923,10.13944923,0.541546994,0.240588038,31.78586147,31.44596314,14.71712213,16,18,98,82,4.125352763,3
505.0078122,9.939448774,10.20385053,13.39274794,13.59258685,0.267966213,0.292905719,10.09003686,10.09003686,0.541603564,0.240536517,31.78745672,31.44602768,14.71712213,16,18,98,82,4.125352763,3
506.0078122,9.938449187,10.20714703,13.33669693,13.54898819,0.267333607,0.298130634,10.03347853,10.03347853,0.541663481,0.240475211,31.7890101,31.446152,14.70686416,17,19,98,82,4.125352763,3
507.0078122,9.938518726,10.21200192,13.28009248,13.51666493,0.266579806,0.304047681,9.977552237,9.977552237,0.541729068,0.24041328,31.79060406,31.4462158,14.70686416,17,19,98,82,4.125352763,3
508.0078122,9.940665335,10.21587792,13.22795765,13.53839071,0.266607611,0.309332655,9.943843623,9.943843623,0.541787093,0.24035986,31.792084,31.4463781,14.70686416,17,19,98,82,4.125352763,3
509.0078122,9.944445761,10.22038,13.17699614,13.62373433,0.266920987,0.311875597,9.941730228,9.941730228,0.541848731,0.240294393,31.79355406,31.44660075,14.70686416,17,19,98,82,4.125352763,3
510.0078122,9.947533439,10.2274543,13.15207597,13.739868,0.266442124,0.310580855,9.956112583,9.956112583,0.541913859,0.240237257,31.79506195,31.44679789,14.69103032,18,19,98,82,4.125352763,3
511.0078122,9.948408379,10.23241034,13.1596007,13.82692769,0.264874072,0.306522717,9.966731478,9.966731478,0.541976049,0.240175626,31.79656175,31.44688154,14.69103032,18,19,98,82,4.125352763,3
512.0078122,9.948180907,10.22631144,13.16727094,13.85160462,0.263171099,0.302468343,9.962362057,9.962362057,0.542041895,0.240108221,31.79800491,31.44696358,14.67651769,19,19,98,82,4.125352763,3
513.0078122,9.947880844,10.20645065,13.15577724,13.84402769,0.262733725,0.301350454,9.938960691,9.938960691,0.542102625,0.240047795,31.79942595,31.44699759,14.67651769,19,19,98,82,4.125352763,3
514.0078122,9.946185944,10.17728617,13.1365638,13.84349951,0.264230221,0.304948667,9.903447794,9.903447794,0.542166638,0.239994059,31.8008508,31.44702038,14.66991535,20,19,98,82,4.125352763,3
515.0078122,9.942326702,10.14559,13.12393662,13.84626571,0.267263015,0.31346435,9.874337478,9.874337478,0.542238512,0.239924649,31.80219626,31.44706021,14.66991535,20,19,98,82,4.125352763,3
516.0078122,9.938141084,10.11907346,13.11778362,13.84816292,0.271080678,0.325724685,9.86507913,9.86507913,0.542291335,0.239863548,31.80350456,31.44705818,14.66991535,20,19,98,82,4.125352763,3
517.0078122,9.935253991,10.10278184,13.10550859,13.87263252,0.275327039,0.339625859,9.874475494,9.874475494,0.542342971,0.239795271,31.80484711,31.44712032,14.67724531,21,20,98,82,4.125352763,3
518.0078122,9.934018667,10.09631778,13.075902,13.91442987,0.279897493,0.352578538,9.895199737,9.895199737,0.54239735,0.239727059,31.80618064,31.4472447,14.67724531,21,20,98,82,4.125352763,3
519.0078122,9.934815426,10.09862982,13.04276934,13.93472899,0.284421611,0.362300819,9.921495576,9.921495576,0.542452335,0.239668624,31.80735488,31.44738586,14.70378711,22,20,98,82,4.125352763,3
520.0078122,9.937246431,10.11136278,13.02778528,13.92995714,0.288251822,0.367584668,9.952179285,9.952179285,0.542507653,0.239592474,31.80845835,31.44748615,14.70378711,22,20,98,82,4.125352763,3
521.0078122,9.939940759,10.1334444,13.010318,13.91834798,0.290984073,0.368825899,9.987576664,9.987576664,0.542556082,0.239519036,31.80966689,31.44758761,14.75401499,23,20,98,82,4.125352763,3
522.0078122,9.941449882,10.15592052,12.96510094,13.88614134,0.29272198,0.368015794,10.01899905,10.01899905,0.542595391,0.239438738,31.81085707,31.44770417,14.75401499,23,20,98,82,4.125352763,3
523.0078122,9.940413605,10.16619341,12.92836388,13.83002212,0.293744572,0.367818277,10.03533314,10.03533314,0.542647829,0.239360709,31.81192776,31.44778892,14.75401499,23,20,98,82,4.125352763,3
524.0078122,9.93640851,10.15897565,12.94698408,13.81176115,0.294111253,0.369919368,10.04206507,10.04206507,0.542687607,0.239276368,31.8129284,31.44787352,14.83162876,23,20,98,82,4.125352763,3
525.0078122,9.931068872,10.14183356,13.00534171,13.88900308,0.29389751,0.373916419,10.05277983,10.05277983,0.542725759,0.239191316,31.81391049,31.44805208,14.83162876,23,20,98,82,4.125352763,3
526.0078122,9.927307509,10.12765033,13.05879476,14.0068673,0.29406539,0.377958212,10.06908708,10.06908708,0.542762432,0.23909799,31.81488245,31.44813115,14.93961405,24,20,98,82,4.125352763,3
527.0078122,9.926533965,10.12367846,13.10439956,14.04128096,0.29714562,0.380714824,10.08183105,10.08183105,0.542786665,0.239018978,31.81574185,31.44817342,14.93961405,24,20,98,82,4.125352763,3
528.0078122,9.927171572,10.12954317,13.17225792,13.94390529,0.306861102,0.383052522,10.07530565,10.07530565,0.542809889,0.238938059,31.81648412,31.44829001,15.08024359,24,20,98,82,4.125352763,3
529.0078122,9.926649781,10.14020532,13.25789118,13.78790038,0.326593864,0.388282139,10.03315034,10.03315034,0.542834207,0.2388491,31.81718109,31.44848138,15.08024359,24,20,98,82,4.125352763,3
530.0078122,9.924572975,10.14931361,13.30066913,13.70605158,0.357072484,0.400601368,9.962532024,9.962532024,0.542834286,0.238762543,31.8179004,31.44867425,15.25494257,24,20,98,82,4.125352763,3
531.0078122,9.924327538,10.15513683,13.25396205,13.81789443,0.394090232,0.421745448,9.90072009,9.90072009,0.542848136,0.238679865,31.81861252,31.44887537,15.25494257,24,20,98,82,4.125352763,3
532.0078122,9.931033744,10.15875377,13.16994874,14.13885522,0.427565883,0.447188597,9.879892241,9.879892241,0.542844014,0.238597178,31.81930922,31.44901318,15.4639895,23,20,98,82,4.125352763,3
533.0078122,9.943944452,10.15447549,13.16770281,14.50260486,0.445242643,0.466202285,9.89782747,9.89782747,0.542832042,0.238517556,31.81995166,31.44911786,15.4639895,23,20,98,82,4.125352763,3
534.0078122,9.952863169,10.13521534,13.29837014,14.65083344,0.439962838,0.468093928,9.932259799,9.932259799,0.542819354,0.238432105,31.82062372,31.44915998,15.4639895,23,20,98,82,4.125352763,3
535.0078122,9.951257714,10.10730473,13.4679657,14.45479069,0.414685264,0.450268124,9.971842842,9.971842842,0.542806354,0.238352679,31.82118746,31.44920999,15.7060943,23,21,98,82,4.125352763,3
536.0078122,9.946105424,10.08711103,13.51980444,14.0267121,0.379982499,0.420044688,10.01799746,10.01799746,0.542778668,0.238264474,31.82170316,31.44927563,15.7060943,23,21,98,82,4.125352763,3
537.0078122,9.944749358,10.08402497,13.4050645,13.61501511,0.346543126,0.388388876,10.06344974,10.06344974,0.542746237,0.238193669,31.82216208,31.44944089,15.97796509,23,21,98,82,4.125352763,3
538.0078122,9.945650792,10.09334579,13.22675365,13.39442653,0.319890792,0.362349762,10.09333092,10.09333092,0.542712056,0.238136329,31.82264493,31.44962681,15.97796509,23,21,98,82,4.125352763,3
539.0078122,9.946157664,10.10373806,13.10084306,13.35579158,0.30054601,0.342964254,10.10709876,10.10709876,0.542682037,0.238086611,31.82304993,31.44982472,15.97796509,23,21,98,82,4.125352763,3
540.0078122,9.94614329,10.10842843,13.04909815,13.38111697,0.28691377,0.328282099,10.11779187,10.11779187,0.542646816,0.238034108,31.82353293,31.4500557,16.27401585,22,21,98,82,4.125352763,3
541.0078122,9.945516748,10.10950352,13.03160444,13.38710602,0.277379966,0.316782206,10.13399262,10.13399262,0.542602801,0.237984988,31.82404383,31.45025696,16.27401585,22,21,98,82,4.125352763,3
542.0078122,9.944082156,10.11133826,13.01322895,13.38156941,0.270838456,0.308243589,10.15407971,10.15407971,0.542563781,0.237935575,31.82451674,31.45044142,16.27401585,22,21,98,82,4.125352763,3
543.0078122,9.941615312,10.11297356,12.98848063,13.40127557,0.266554176,0.302754063,10.16516158,10.16516158,0.54252972,0.237886949,31.82487009,31.45071189,16.58636387,22,21,98,82,4.125352763,3
544.0078122,9.938115415,10.11112844,12.97054364,13.44168922,0.26397149,0.299791026,10.15112634,10.15112634,0.542487735,0.237849374,31.82528715,31.45092332,16.58636387,22,21,98,82,4.125352763,3
545.0078122,9.934561939,10.10703107,12.9687463,13.46779085,0.262600162,0.298314023,10.11610558,10.11610558,0.54243719,0.237835294,31.82562766,31.45113888,16.58636387,22,21,98,82,4.125352763,3
546.0078122,9.93209721,10.10557202,12.97981511,13.46002346,0.261934415,0.297307255,10.08699845,10.08699845,0.542385743,0.237822316,31.82592281,31.45134084,16.58636387,22,21,98,82,4.125352763,3
547.0078122,9.930783998,10.108958,12.99327205,13.42910057,0.261527748,0.29621458,10.08573346,10.08573346,0.542332384,0.237814821,31.82618993,31.45146152,16.90521197,22,21,98,81,4.125352763,3
548.0078122,9.92981714,10.1133829,12.99912817,13.39973132,0.261063733,0.295077144,10.10575502,10.10575502,0.542278036,0.237795936,31.82653084,31.45153532,16.90521197,22,21,98,81,4.125352763,3
549.0078122,9.928802923,10.11350755,12.99693547,13.38463541,0.260291868,0.294458835,10.11791451,10.11791451,0.542216876,0.237794932,31.82692775,31.45145887,16.90521197,22,21,98,81,4.125352763,3
550.0078122,9.928244619,10.10936271,12.98876119,13.37712076,0.258960383,0.295153845,10.10240546,10.10240546,0.542153668,0.237769864,31.8272711,31.45142325,16.90521197,22,21,98,81,4.125352763,3
551.0078122,9.928553696,10.10605321,12.96597119,13.37660079,0.256947221,0.297694205,10.06943588,10.06943588,0.542086094,0.237867696,31.82753792,31.45131115,16.90521197,22,21,98,81,4.125352763,3
552.0078122,9.929084251,10.10715979,12.93239655,13.40439032,0.254472616,0.301812524,10.04517998,10.04517998,0.542022496,0.237946201,31.82792294,31.45127413,17.21962038,21,22,98,81,4.125352763,3
553.0078122,9.928728587,10.11114191,12.92230299,13.46674923,0.252074119,0.306184852,10.04663083,10.04663083,0.541964727,0.237990925,31.82836456,31.45123149,17.21962038,21,22,98,81,4.125352763,3
554.0078122,9.927627941,10.1148016,12.95979951,13.5214103,0.250304589,0.308881244,10.07219146,10.07219146,0.541912666,0.238038458,31.82886574,31.45112548,17.21962038,21,22,98,81,4.125352763,3
555.0078122,9.927109855,10.11710666,13.02683813,13.52606445,0.249454596,0.308504216,10.10569319,10.10569319,0.541862662,0.238098014,31.82936741,31.45098848,17.21962038,21,22,98,81,4.125352763,3
556.0078122,9.927704565,10.11828107,13.08816318,13.49732737,0.249505298,0.305121431,10.12355119,10.12355119,0.541823689,0.238171511,31.82982725,31.45078695,17.51856954,21,22,98,80,4.125352763,3
557.0078122,9.928840493,10.11916948,13.11602946,13.48367671,0.250215602,0.300017288,10.10938373,10.10938373,0.541782334,0.238244305,31.83038706,31.45061608,17.51856954,21,22,98,80,4.125352763,3
558.0078122,9.929981469,10.12188944,13.10071295,13.50727841,0.25119666,0.294571666,10.06867514,10.06867514,0.541734395,0.238329286,31.83101891,31.45044027,17.51856954,21,22,98,80,4.125352763,3
559.0078122,9.930871177,10.12778636,13.06491075,13.5577568,0.25199195,0.289376918,10.02415353,10.02415353,0.541688353,0.238408006,31.83159426,31.4501949,17.79212616,21,22,98,80,4.125352763,3
560.0078122,9.931708226,10.13718355,13.04346866,13.61997456,0.252194514,0.284322288,9.999419801,9.999419801,0.541647948,0.238499087,31.83212076,31.449865,17.79212616,21,22,98,80,4.125352763,3
561.0078122,9.933033018,10.15135316,13.03923768,13.68038172,0.251520056,0.2792006,10.00737797,10.00737797,0.541612351,0.238586943,31.83274105,31.44951186,17.79212616,21,22,98,80,4.125352763,3
562.0078122,9.934642983,10.16875818,13.02867187,13.71986641,0.249811362,0.274069177,10.04387424,10.04387424,0.541576896,0.238674212,31.83341127,31.44903682,18.03247676,22,23,98,80,4.125352763,3
563.0078122,9.935863237,10.18196442,13.00658991,13.72377581,0.24710566,0.269146932,10.0916788,10.0916788,0.541534174,0.238754892,31.83404872,31.44840043,18.03247676,22,23,98,80,4.125352763,3
564.0078122,9.936603254,10.18471525,12.99526051,13.69267638,0.243807042,0.264657188,10.13486183,10.13486183,0.541493877,0.238889517,31.83462561,31.44768578,18.23460234,22,23,98,79,4.125352763,3
565.0078122,9.936841724,10.17866339,13.00872901,13.63205245,0.240764272,0.261025148,10.16150296,10.16150296,0.541449815,0.239016139,31.83525988,31.44699663,18.23460234,22,23,98,79,4.125352763,3
566.0078122,9.936144681,10.17043303,13.03017024,13.55692351,0.239115192,0.25922075,10.15594016,10.15594016,0.541401265,0.23914509,31.83595184,31.44623496,18.23460234,22,23,98,79,4.125352763,3
567.0078122,9.934216684,10.16505778,13.03429618,13.5184516,0.240051509,0.260616541,10.10885848,10.10885848,0.541356065,0.239270154,31.83670746,31.44536068,18.39643815,22,23,98,79,4.125352763,3
568.0078122,9.931500699,10.1618848,13.01465074,13.57007815,0.244622211,0.266194136,10.03584503,10.03584503,0.541315493,0.239395303,31.8374583,31.44435124,18.39643815,22,23,98,79,4.125352763,3
569.0078122,9.929259442,10.15516465,12.98228535,13.68943302,0.253377968,0.27575046,9.969331836,9.969331836,0.541268535,0.239510653,31.83825571,31.44333477,18.39643815,22,23,98,79,4.125352763,3
570.0078122,9.928597083,10.14094822,12.95677538,13.79673961,0.265940795,0.287964533,9.928880899,9.928880899,0.541223769,0.239623689,31.83904253,31.44227303,18.51848207,22,24,98,78,4.125352763,3
571.0078122,9.928842683,10.12428988,12.95444731,13.85782815,0.280994498,0.301259944,9.908781155,9.908781155,0.541185253,0.239729813,31.83979796,31.44119063,18.51848207,22,24,98,78,4.125352763,3
572.0078122,9.928146026,10.11408844,12.9758322,13.90494604,0.297123502,0.314918295,9.898404798,9.898404798,0.541144034,0.239833984,31.84062533,31.4400067,18.60295636,23,24,98,78,4.125352763,3
573.0078122,9.92682647,10.10967892,13.00657295,13.95946163,0.313246943,0.329253163,9.911598317,9.911598317,0.541099991,0.239931829,31.84155178,31.43888473,18.60295636,23,24,98,78,4.125352763,3
574.0078122,9.92729414,10.10102512,13.01946824,14.00131709,0.327691652,0.34450244,9.98517156,9.98517156,0.541048218,0.240012824,31.84237596,31.43776245,18.65275172,23,24,98,78,4.125352763,3
575.0078122,9.929208722,10.08409112,12.99933667,14.01313302,0.337190823,0.359417526,10.1282214,10.1282214,0.540998592,0.240089797,31.84316324,31.4364861,18.65275172,23,24,98,78,4.125352763,3
576.0078122,9.928728935,10.06845951,12.98221303,13.99365434,0.33799805,0.371120568,10.28200691,10.28200691,0.540949801,0.240166737,31.84392553,31.43521729,18.6704503,23,24,98,77,4.125352763,3
577.0078122,9.924612632,10.06526602,13.02228155,13.93074393,0.328689815,0.376522307,10.36426767,10.36426767,0.540899028,0.240235633,31.84476469,31.43392214,18.6704503,23,24,98,77,4.125352763,3
578.0078122,9.920619227,10.07298027,13.11221473,13.82040877,0.311682393,0.373944247,10.34874237,10.34874237,0.540846596,0.240290043,31.84558047,31.43253192,18.6704503,23,24,98,77,4.125352763,3
579.0078122,9.920014377,10.08222747,13.18213822,13.70166434,0.291820272,0.363689653,10.27621239,10.27621239,0.540793407,0.240336841,31.84641968,31.43109993,18.65770859,23,25,98,77,4.125352763,3
580.0078122,9.92225276,10.08893685,13.18656191,13.61821928,0.273611473,0.347635988,10.2007391,10.2007391,0.540727463,0.240373255,31.84729633,31.42973003,18.65770859,23,25,98,77,4.125352763,3
581.0078122,9.925786568,10.09552502,13.14894902,13.56869799,0.259539599,0.328552102,10.14856584,10.14856584,0.540661666,0.240396613,31.84810277,31.42823515,18.61517814,23,25,98,77,4.125352763,3
582.0078122,9.930498713,10.10458198,13.10912276,13.53067299,0.250114537,0.309483387,10.11810772,10.11810772,0.540590802,0.240427455,31.84892899,31.42679528,18.61517814,23,25,98,77,4.125352763,3
583.0078122,9.936217965,10.11647274,13.07654513,13.506328,0.244740366,0.29316819,10.09495796,10.09495796,0.540518894,0.240440978,31.84985668,31.42534517,18.61517814,23,25,98,77,4.125352763,3
584.0078122,9.941315095,10.1305566,13.04572555,13.51883502,0.242427912,0.281369304,10.06773405,10.06773405,0.540440181,0.240447727,31.8508022,31.42386732,18.54297861,22,25,98,77,4.125352763,3
585.0078122,9.944556063,10.14690805,13.01618889,13.57964798,0.242175355,0.274571398,10.04308948,10.04308948,0.540361227,0.240446169,31.85166164,31.4223744,18.54297861,22,25,98,77,4.125352763,3
586.0078122,9.94631118,10.16491729,12.9928097,13.67640942,0.243060066,0.271974808,10.03812012,10.03812012,0.540273683,0.240438505,31.85251135,31.42092395,18.4415626,22,24,98,76,4.125352763,3
587.0078122,9.947440714,10.17912673,12.987373,13.78204106,0.244261232,0.27202158,10.05259344,10.05259344,0.540186501,0.240421387,31.85330883,31.41950621,18.4415626,22,24,98,76,4.125352763,3
588.0078122,9.948472384,10.18209075,13.00817388,13.85234238,0.245074966,0.273031088,10.06690189,10.06690189,0.54010026,0.240391649,31.85420552,31.41807696,18.4415626,22,24,98,76,4.125352763,3
589.0078122,9.949267455,10.17357821,13.04647452,13.83125114,0.245041193,0.273705637,10.07315104,10.07315104,0.540004309,0.240353375,31.85502648,31.4166247,18.31268164,21,24,98,76,4.125352763,3
590.0078122,9.949159253,10.16206178,13.08008931,13.70593485,0.244160501,0.27345771,10.08880803,10.08880803,0.539916287,0.240300462,31.85574259,31.41523753,18.31268164,21,24,98,76,4.125352763,3
591.0078122,9.947760334,10.15638996,13.07922053,13.54314865,0.243001589,0.272521057,10.13095555,10.13095555,0.539821647,0.240253528,31.85646377,31.4138797,18.16012161,21,24,98,76,4.125352763,3
592.0078122,9.94546013,10.15921495,13.03026279,13.42972088,0.242500804,0.271688677,10.1893556,10.1893556,0.539736896,0.240187702,31.85701563,31.41266916,18.16012161,21,24,98,76,4.125352763,3
593.0078122,9.942911735,10.16759552,12.95982475,13.39453468,0.243421574,0.271656697,10.23332371,10.23332371,0.539649339,0.240124977,31.8576168,31.41152124,18.16012161,21,24,98,76,4.125352763,3
594.0078122,9.940316488,10.17632558,12.90970406,13.41045123,0.245722643,0.272410879,10.24321131,10.24321131,0.539553085,0.240050528,31.85815097,31.4104088,17.98993878,20,24,98,76,4.125352763,3
595.0078122,9.93799364,10.18137074,12.90417789,13.45075648,0.248359174,0.273239121,10.23159555,10.23159555,0.539454297,0.23998269,31.8587249,31.40940663,17.98993878,20,24,98,76,4.125352763,3
596.0078122,9.936554302,10.18225503,12.94438608,13.516014,0.249881719,0.273332762,10.22671297,10.22671297,0.539354341,0.239901134,31.85927423,31.40843115,17.98993878,20,24,98,76,4.125352763,3
597.0078122,9.935916986,10.17999084,13.00902279,13.60262607,0.249467677,0.272304094,10.23682052,10.23682052,0.539257333,0.239829625,31.85980078,31.40747189,17.81007445,19,23,98,75,4.125352763,3
598.0078122,9.935838413,10.17471611,13.06585191,13.67474686,0.247451618,0.270223672,10.24447267,10.24447267,0.539156447,0.239729279,31.86034972,31.40649449,17.81007445,19,23,98,75,4.125352763,3
599.0078122,9.936741351,10.16868087,13.09565191,13.69249535,0.244924635,0.267463715,10.23420191,10.23420191,0.539049156,0.239634844,31.86075988,31.40558014,17.81007445,19,23,98,75,4.125352763,3
600.0078122,9.93857218,10.1669858,13.101308,13.65254498,0.242865606,0.264667404,10.21013549,10.21013549,0.538936065,0.239544797,31.86120998,31.40458627,17.62941122,19,23,98,75,4.125352763,3
601.0078122,9.940249783,10.17120152,13.09175894,13.58716333,0.241637207,0.26271791,10.18482264,10.18482264,0.538830583,0.239448174,31.86153606,31.40367361,17.62941122,19,23,98,75,4.125352763,3
602.0078122,9.941190798,10.17654936,13.07044261,13.53549848,0.241151513,0.262463914,10.16513696,10.16513696,0.538725081,0.23934994,31.86189967,31.40287884,17.62941122,19,23,98,75,4.125352763,3
603.0078122,9.941747207,10.17879018,13.04722422,13.51449288,0.241359404,0.264284978,10.15680523,10.15680523,0.538614487,0.23925714,31.86223131,31.40211028,17.62941122,19,23,98,75,4.125352763,3
604.0078122,9.941485144,10.17805506,13.04464892,13.50949124,0.242477536,0.267825152,10.16888249,10.16888249,0.538506681,0.239162188,31.86247748,31.40130608,17.4564988,18,23,98,75,4.125352763,3
605.0078122,9.939158012,10.17401604,13.08011483,13.4994594,0.244698546,0.272133902,10.20053115,10.20053115,0.538394167,0.239067377,31.86279987,31.40058693,17.4564988,18,23,98,75,4.125352763,3
606.0078122,9.935168443,10.16676166,13.14723104,13.47979384,0.247758173,0.276163273,10.23444241,10.23444241,0.538285467,0.238974187,31.86301293,31.39996269,17.4564988,18,23,98,75,4.125352763,3
607.0078122,9.931911516,10.16243249,13.22098166,13.45231469,0.250912459,0.279302572,10.25026299,10.25026299,0.53817147,0.238892911,31.86314393,31.39950322,17.4564988,18,23,98,75,4.125352763,3
608.0078122,9.931175975,10.16791125,13.28234986,13.42080541,0.25332617,0.281559051,10.23501832,10.23501832,0.538067111,0.238811254,31.8632771,31.39909297,17.2982746,18,22,98,75,4.125352763,3
609.0078122,9.932579832,10.18024568,13.32971291,13.4047049,0.254385073,0.283223637,10.1877007,10.1877007,0.537973145,0.238721459,31.86330565,31.39884301,17.2982746,18,22,98,75,4.125352763,3
610.0078122,9.934764059,10.18890367,13.3616357,13.42165918,0.253698398,0.284329233,10.12430908,10.12430908,0.537870104,0.238642274,31.8632749,31.3985518,17.2982746,18,22,98,75,4.125352763,3
611.0078122,9.937398914,10.18869585,13.36469282,13.45001802,0.251041874,0.284425504,10.06961893,10.06961893,0.537774678,0.238561886,31.86335091,31.39816804,17.2982746,18,22,98,75,4.125352763,3
612.0078122,9.940813471,10.18435135,13.32979954,13.45261414,0.246540415,0.282940187,10.03776783,10.03776783,0.537681659,0.238346972,31.8635105,31.39785313,17.2982746,18,22,98,75,4.125352763,3
613.0078122,9.943949368,10.18239484,13.26666944,13.43306913,0.240950874,0.279789579,10.0241557,10.0241557,0.537579,0.238284167,31.86345295,31.39762957,17.15910733,17,22,98,74,4.125352763,3
614.0078122,9.944937976,10.18431693,13.19778885,13.41846063,0.235666974,0.27572659,10.01826401,10.01826401,0.537485379,0.238209912,31.86329481,31.39744955,17.15910733,17,22,98,74,4.125352763,3
615.0078122,9.943689548,10.18827738,13.14861888,13.4108263,0.232206953,0.272119177,10.01821093,10.01821093,0.537390286,0.238146807,31.8630751,31.39720507,17.15910733,17,22,98,74,4.125352763,3
616.0078122,9.941835384,10.19349347,13.13376639,13.4008083,0.231426441,0.270255581,10.02795702,10.02795702,0.537295221,0.238087683,31.86282298,31.39699546,17.15910733,17,22,98,74,4.125352763,3
617.0078122,9.940401613,10.19997583,13.14147142,13.39553189,0.233086376,0.270643978,10.04908248,10.04908248,0.537198842,0.238029424,31.86252645,31.39673601,17.04040446,17,22,98,74,4.125352763,3
618.0078122,9.939123402,10.20493184,13.14661652,13.40362838,0.236193388,0.272798536,10.08104032,10.08104032,0.537112524,0.23797804,31.86221279,31.39646478,17.04040446,17,22,98,74,4.125352763,3
619.0078122,9.937679717,10.20521378,13.14903951,13.42563243,0.23977456,0.275536871,10.11921719,10.11921719,0.537022114,0.237920868,31.86188294,31.39620582,17.04040446,17,22,98,74,4.125352763,3
620.0078122,9.936599635,10.20250666,13.17199556,13.46753388,0.243293067,0.277421928,10.14932774,10.14932774,0.53693651,0.237867184,31.86155993,31.39595676,17.04040446,17,22,98,74,4.125352763,3
621.0078122,9.936559606,10.19963611,13.2115595,13.52818291,0.246402309,0.277208279,10.15672737,10.15672737,0.536855455,0.237818495,31.86130639,31.39569147,16.94087457,17,22,97,74,4.125352763,3
622.0078122,9.937223385,10.19613846,13.22719774,13.5782019,0.248591235,0.274425622,10.14257503,10.14257503,0.536762733,0.237777755,31.86100221,31.39548264,16.94087457,17,22,97,74,4.125352763,3
623.0078122,9.937756332,10.19130413,13.19781275,13.58729223,0.249363259,0.269812114,10.12103495,10.12103495,0.536679159,0.237726368,31.86072733,31.39533205,16.94087457,17,22,97,74,4.125352763,3
624.0078122,9.937838203,10.18610039,13.1558922,13.56434964,0.248749044,0.265076523,10.10482613,10.10482613,0.536589738,0.237687667,31.86047339,31.39523317,16.94087457,17,22,97,74,4.125352763,3
625.0078122,9.937343666,10.18143587,13.15138968,13.53841853,0.247478897,0.262035328,10.09975379,10.09975379,0.536504485,0.237651467,31.86013687,31.39509481,16.85736553,17,22,97,74,4.125352763,3
626.0078122,9.936148982,10.17757088,13.19769396,13.51461405,0.246491726,0.261932818,10.10450794,10.10450794,0.536419112,0.237617969,31.85981381,31.39488,16.85736553,17,22,97,74,4.125352763,3
627.0078122,9.934657421,10.17490058,13.27111057,13.48479044,0.246269495,0.265150102,10.10768761,10.10768761,0.536335608,0.237588719,31.85943198,31.39463425,16.85736553,17,22,97,74,4.125352763,3
628.0078122,9.933525958,10.17384817,13.35253146,13.46212752,0.246571937,0.270858622,10.0945916,10.0945916,0.536251715,0.237557859,31.8590796,31.39443228,16.78605485,17,22,97,73,4.125352763,3
629.0078122,9.933228379,10.17452046,13.43145039,13.46264252,0.246683874,0.276833253,10.0646417,10.0646417,0.536165683,0.237530044,31.85877944,31.39421038,16.78605485,17,22,97,73,4.125352763,3
630.0078122,9.934325686,10.1776841,13.48049436,13.47286503,0.245929102,0.280356703,10.03351637,10.03351637,0.536078448,0.237508181,31.85837623,31.39394219,16.78605485,17,22,97,73,4.125352763,3
631.0078122,9.93701504,10.1839388,13.47523518,13.47275161,0.244164938,0.280080432,10.0158596,10.0158596,0.535987722,0.237483452,31.85805147,31.39364025,16.78605485,17,22,97,73,4.125352763,3
632.0078122,9.940176954,10.19099581,13.42539976,13.46743378,0.242041632,0.27713571,10.01207904,10.01207904,0.535902205,0.237468663,31.85780831,31.39337634,16.72368485,18,22,97,73,4.125352763,3
633.0078122,9.942038195,10.19428714,13.36029092,13.47456759,0.240841943,0.274269935,10.01438664,10.01438664,0.53581659,0.237448412,31.85743811,31.39299676,16.72368485,18,22,97,73,4.125352763,3
634.0078122,9.941582485,10.1908075,13.31283103,13.4997326,0.2418072,0.273826789,10.02117895,10.02117895,0.535732097,0.237437865,31.85715561,31.3926022,16.72368485,18,22,97,73,4.125352763,3
635.0078122,9.939079893,10.1825836,13.31374275,13.53220551,0.245231579,0.276311284,10.03453642,10.03453642,0.535641113,0.237425878,31.85691937,31.39230815,16.66853006,18,22,97,73,4.125352763,3
636.0078122,9.936160702,10.17613976,13.35323544,13.55407309,0.250086046,0.280392279,10.04768669,10.04768669,0.535560146,0.237417579,31.85671667,31.3919364,16.66853006,18,22,97,73,4.125352763,3
637.0078122,9.93458542,10.17605197,13.37602413,13.55418275,0.254612049,0.283926252,10.05125019,10.05125019,0.535477912,0.237405247,31.85650017,31.39146514,16.66853006,18,22,97,73,4.125352763,3
638.0078122,9.934508529,10.17912763,13.35736332,13.54135647,0.257481397,0.285223764,10.04644214,10.04644214,0.535391024,0.237393881,31.8562333,31.39104487,16.62085762,18,22,97,72,4.125352763,3
639.0078122,9.935092955,10.17817757,13.33250898,13.53811077,0.258438453,0.283745963,10.04022053,10.04022053,0.535300942,0.237385692,31.85593968,31.39060731,16.62085762,18,22,97,72,4.125352763,3
640.0078122,9.936095048,10.17157689,13.3266399,13.54731456,0.258031184,0.279916136,10.0358972,10.0358972,0.535216938,0.237376559,31.85570188,31.39010811,16.62085762,18,22,97,72,4.125352763,3
641.0078122,9.937980093,10.1661909,13.3196121,13.54225117,0.256954143,0.274480674,10.03196191,10.03196191,0.535140395,0.237374543,31.85557814,31.38958596,16.62085762,18,22,97,72,4.125352763,3
642.0078122,9.94090374,10.16946234,13.29855882,13.50594726,0.255629563,0.26818202,10.02286383,10.02286383,0.535061619,0.237357032,31.85548236,31.38909276,16.58277125,19,22,97,72,4.125352763,3
643.0078122,9.94396146,10.17933124,13.28428922,13.45089188,0.25415038,0.261904253,10.004555,10.004555,0.534988878,0.237342001,31.85534691,31.38854104,16.58277125,19,22,97,72,4.125352763,3
644.0078122,9.945883342,10.18594767,13.28465608,13.40028832,0.25243107,0.256713197,9.981391952,9.981391952,0.53491614,0.237334148,31.85512581,31.38796944,16.58277125,19,22,97,72,4.125352763,3
645.0078122,9.946283598,10.18409992,13.27394393,13.37341232,0.250399755,0.253403148,9.962642915,9.962642915,0.534844106,0.237323329,31.85495154,31.3873165,16.58277125,19,22,97,72,4.125352763,3
646.0078122,9.945838976,10.17809605,13.23257378,13.37163948,0.24806119,0.251986052,9.954640813,9.954640813,0.534770279,0.237312556,31.85485934,31.38655381,16.58277125,19,22,97,72,4.125352763,3
647.0078122,9.945297779,10.17383447,13.17106484,13.37711276,0.245437969,0.251769974,9.958042563,9.958042563,0.534705585,0.237300771,31.85473255,31.38588146,16.5574846,19,22,97,72,4.125352763,3
648.0078122,9.944688492,10.17226068,13.11242184,13.37937209,0.242628022,0.251948578,9.969229342,9.969229342,0.534637099,0.23729067,31.85458525,31.38518707,16.5574846,19,22,97,72,4.125352763,3
649.0078122,9.943779299,10.17238508,13.06798629,13.38850473,0.239982084,0.252021979,9.982981604,9.982981604,0.53457158,0.237286091,31.85442716,31.38447097,16.5574846,19,22,97,72,4.125352763,3
650.0078122,9.942687865,10.17601247,13.03440235,13.41610484,0.237991669,0.251733196,9.99218651,9.99218651,0.534505532,0.237286462,31.85432704,31.38373352,16.5574846,19,22,97,72,4.125352763,3
651.0078122,9.941764641,10.18605363,13.00623446,13.45652295,0.236831087,0.25094399,9.98851615,9.98851615,0.534439076,0.237283414,31.85421748,31.38295324,16.54821134,20,23,98,72,4.125352763,3
652.0078122,9.941271874,10.20110541,12.98016108,13.48691545,0.236079337,0.249884302,9.970115359,9.970115359,0.534375101,0.237280336,31.85421153,31.38209316,16.54821134,20,23,98,72,4.125352763,3
653.0078122,9.941116754,10.2139033,12.95862764,13.48519509,0.235126017,0.249448165,9.944042761,9.944042761,0.534310093,0.237263862,31.85408269,31.38120066,16.55695472,20,23,98,72,4.125352763,3
654.0078122,9.941028793,10.21707024,12.95540537,13.46012823,0.233808358,0.250789445,9.918342252,9.918342252,0.534258869,0.237264535,31.85373065,31.38021422,16.55695472,20,23,98,72,4.125352763,3
655.0078122,9.940908187,10.21063605,12.97917501,13.4531257,0.232497215,0.254171722,9.900385032,9.900385032,0.534209268,0.237261339,31.85341299,31.37927725,16.55695472,20,23,98,72,4.125352763,3
656.0078122,9.940732442,10.20116128,13.01424384,13.4892569,0.231574446,0.258208077,9.900574016,9.900574016,0.534160891,0.237253825,31.85326874,31.37839461,16.58350665,21,23,98,72,4.125352763,3
657.0078122,9.940530911,10.19446377,13.0322221,13.5387278,0.23100605,0.26067407,9.92428097,9.92428097,0.534111465,0.237263386,31.85308182,31.37744677,16.58350665,21,23,98,72,4.125352763,3
658.0078122,9.940280284,10.19352117,13.02231354,13.55085937,0.230504815,0.260419257,9.960010704,9.960010704,0.534074461,0.237261683,31.85278519,31.37656458,16.62491961,21,23,98,72,4.125352763,3
659.0078122,9.939985663,10.19931664,13.00116451,13.51795462,0.229974119,0.258395801,9.985623374,9.985623374,0.534038541,0.237237773,31.85254918,31.37570408,16.62491961,21,23,98,72,4.125352763,3
660.0078122,9.940255098,10.20790321,12.98362356,13.47778062,0.229614915,0.256678889,9.987516082,9.987516082,0.534007294,0.237236459,31.85231918,31.3747783,16.62491961,21,23,98,72,4.125352763,3
661.0078122,9.941895226,10.21097933,12.9584656,13.46051991,0.229566139,0.256650614,9.968640293,9.968640293,0.533978732,0.237243635,31.85203444,31.3738266,16.67560634,21,23,98,73,4.125352763,3
662.0078122,9.944488334,10.20514634,12.91292106,13.45772336,0.229537976,0.258204118,9.942328246,9.942328246,0.53394989,0.237225122,31.85175094,31.37290171,16.67560634,21,23,98,73,4.125352763,3
663.0078122,9.946504643,10.19651297,12.86455117,13.44643072,0.228908092,0.26027757,9.924655508,9.924655508,0.533930459,0.237203106,31.85143293,31.3719172,16.72807672,22,23,98,73,4.125352763,3
664.0078122,9.947510679,10.19139259,12.84492758,13.42808611,0.227227778,0.261624167,9.92549465,9.92549465,0.533916068,0.237185223,31.85113579,31.37098053,16.72807672,22,23,98,73,4.125352763,3
665.0078122,9.948553244,10.18894193,12.86091327,13.42003279,0.224624299,0.261217552,9.941579402,9.941579402,0.533904534,0.237165378,31.85066139,31.37016885,16.77417308,22,24,98,74,4.125352763,3
666.0078122,9.950211502,10.18621395,12.8902381,13.42201043,0.221701414,0.258571715,9.962712171,9.962712171,0.533899565,0.237162616,31.85022944,31.36918028,16.77417308,22,24,98,74,4.125352763,3
667.0078122,9.952094437,10.18374747,12.91361335,13.42096683,0.219104207,0.254142069,9.981203677,9.981203677,0.533900019,0.237162222,31.84977142,31.36807981,16.77417308,22,24,98,74,4.125352763,3
668.0078122,9.953495876,10.18413528,12.93973309,13.41272166,0.217225518,0.249323153,9.990926242,9.990926242,0.533902061,0.237161166,31.84928869,31.36710037,16.80654867,22,24,98,74,4.125352763,3
669.0078122,9.953885114,10.18865909,12.99088475,13.39911128,0.216254883,0.245770788,9.988210641,9.988210641,0.533899457,0.237165464,31.84873708,31.36613352,16.80654867,22,24,98,74,4.125352763,3
670.0078122,9.953255179,10.19588196,13.06978203,13.37727165,0.216326911,0.244531853,9.977117527,9.977117527,0.533901484,0.237167385,31.84817754,31.36510592,16.80654867,22,24,98,74,4.125352763,3
671.0078122,9.952045096,10.20178418,13.15289643,13.34444502,0.21747321,0.245586353,9.963360359,9.963360359,0.533895397,0.237165505,31.84763436,31.36423599,16.82007514,23,24,98,74,4.125352763,3
672.0078122,9.951235655,10.20221665,13.21473659,13.31128332,0.219415211,0.247913619,9.948465806,9.948465806,0.533899814,0.23716994,31.84688558,31.36330802,16.82007514,23,24,98,74,4.125352763,3
673.0078122,9.951591398,10.19656349,13.23946186,13.29961486,0.221493432,0.249927937,9.936930985,9.936930985,0.533909662,0.237178079,31.84620605,31.36228136,16.81287844,23,24,98,75,4.125352763,3
674.0078122,9.952452885,10.18851724,13.2133303,13.31842738,0.22292727,0.25020585,9.938020285,9.938020285,0.533919931,0.237194022,31.84561917,31.36114849,16.81287844,23,24,98,75,4.125352763,3
675.0078122,9.952734711,10.1824407,13.13395344,13.35265463,0.223257494,0.248301774,9.956595724,9.956595724,0.53393804,0.237207694,31.8449258,31.3601401,16.81287844,23,24,98,75,4.125352763,3
676.0078122,9.951958708,10.17798909,13.03743375,13.37328292,0.222571832,0.245098254,9.987780287,9.987780287,0.533953395,0.237213361,31.84427892,31.35916438,16.78678304,23,24,98,75,4.125352763,3
677.0078122,9.950232583,10.17073677,12.97287676,13.36583554,0.22129033,0.242332528,10.01952793,10.01952793,0.533969887,0.237226885,31.84353706,31.35816362,16.78678304,23,24,98,75,4.125352763,3
678.0078122,9.948647233,10.1605728,12.95094756,13.35004306,0.219793923,0.24156771,10.03818665,10.03818665,0.533986871,0.237241125,31.84282787,31.35714257,16.78678304,23,24,98,75,4.125352763,3
679.0078122,9.948461103,10.15378877,12.95005204,13.35925874,0.218330222,0.243395833,10.03560427,10.03560427,0.533997816,0.237263747,31.84201371,31.35613941,16.78678304,23,24,98,75,4.125352763,3
680.0078122,9.94938039,10.15461551,12.96115258,13.40566737,0.217199292,0.24733554,10.01327662,10.01327662,0.534014516,0.237280186,31.84113101,31.35509879,16.74707276,24,24,98,75,4.125352763,3
681.0078122,9.950238808,10.16164392,12.99042102,13.47550339,0.216831847,0.252320853,9.976899849,9.976899849,0.534034701,0.237298255,31.84020173,31.35413692,16.74707276,24,24,98,75,4.125352763,3
682.0078122,9.950378464,10.17273219,13.02198501,13.5515166,0.21760943,0.257379761,9.929459506,9.929459506,0.534047902,0.237313955,31.83930244,31.35322684,16.74707276,24,24,98,75,4.125352763,3
683.0078122,9.949224817,10.18551342,13.0143413,13.63170375,0.219677688,0.262089728,9.875857093,9.875857093,0.534061805,0.237338221,31.8384652,31.35226285,16.70162125,24,24,98,76,4.125352763,3
684.0078122,9.946350093,10.19329055,12.95215727,13.71941584,0.222921504,0.266526436,9.829416177,9.829416177,0.534072759,0.237362843,31.83751989,31.35136055,16.70162125,24,24,98,76,4.125352763,3
685.0078122,9.942087447,10.18868381,12.88108793,13.79893262,0.226947909,0.27076396,9.803191969,9.803191969,0.534086078,0.237383839,31.83655325,31.35048275,16.65957326,24,24,98,76,4.125352763,3
686.0078122,9.937368381,10.17316949,12.85961833,13.84120857,0.231002248,0.27442322,9.794907459,9.794907459,0.534100911,0.237413824,31.8355439,31.3496247,16.65957326,24,24,98,76,4.125352763,3
687.0078122,9.933533425,10.15689877,12.88497866,13.83688373,0.234106269,0.276782365,9.788710307,9.788710307,0.53411968,0.237447493,31.83452248,31.34885974,16.62984037,25,24,98,76,4.125352763,3
688.0078122,9.931301784,10.14715123,12.89995011,13.80597225,0.235610007,0.27737113,9.774686748,9.774686748,0.534129777,0.237484609,31.83353635,31.3481155,16.62984037,25,24,98,76,4.125352763,3
689.0078122,9.930155969,10.14301814,12.86445183,13.77893704,0.235734097,0.276421082,9.758109519,9.758109519,0.534142495,0.237514426,31.83249602,31.34730019,16.61969809,25,24,98,76,4.125352763,3
690.0078122,9.929941776,10.14214978,12.79438763,13.77308658,0.235448461,0.274716235,9.749552382,9.749552382,0.534151229,0.237554932,31.83151387,31.34654195,16.61969809,25,24,98,76,4.125352763,3
691.0078122,9.931358533,10.14520273,12.74357694,13.78025311,0.235753092,0.273068228,9.755380015,9.755380015,0.534160665,0.237593054,31.83044847,31.34575639,16.63373212,25,24,98,76,4.125352763,3
692.0078122,9.934067991,10.15240001,12.75916346,13.77640559,0.237038809,0.271972176,9.771609904,9.771609904,0.534168223,0.237631554,31.82930616,31.34505039,16.63373212,25,24,98,76,4.125352763,3
693.0078122,9.936085842,10.16139032,12.83728931,13.7392333,0.239023346,0.271681786,9.784994881,9.784994881,0.534166596,0.23766894,31.82822399,31.34430936,16.67329531,25,24,98,77,4.125352763,3
694.0078122,9.935992972,10.16876212,12.92978066,13.67037572,0.241076238,0.272355118,9.788842542,9.788842542,0.534169001,0.237712851,31.82727161,31.34354951,16.67329531,25,24,98,77,4.125352763,3
695.0078122,9.934893157,10.17198995,13.00874607,13.60360533,0.242562682,0.273906213,9.791708776,9.791708776,0.53416318,0.23779244,31.82623965,31.34273898,16.67329531,25,24,98,77,4.125352763,3
696.0078122,9.935007111,10.17107396,13.08795074,13.56628915,0.243149304,0.275811083,9.807393052,9.807393052,0.534151729,0.237869133,31.82526891,31.34196333,16.73652432,25,24,98,77,4.125352763,3
697.0078122,9.936965882,10.1669026,13.16526248,13.54188873,0.243123346,0.277404762,9.847816934,9.847816934,0.53414273,0.237914121,31.82439408,31.34131037,16.73652432,25,24,98,77,4.125352763,3
698.0078122,9.93932541,10.15923889,13.20916087,13.49068879,0.243452632,0.278539194,9.919270315,9.919270315,0.534147461,0.237972658,31.82348664,31.34062248,16.81885239,25,24,98,77,4.125352763,3
699.0078122,9.940149541,10.15021588,13.22430022,13.40337492,0.245204581,0.279732282,10.00552733,10.00552733,0.534164068,0.238037634,31.82256361,31.33993781,16.81885239,25,24,98,77,4.125352763,3
700.0078122,9.938549792,10.14555989,13.2566495,13.32095036,0.248581005,0.281392847,10.06557208,10.06557208,0.534185529,0.238102191,31.82166448,31.33923814,16.91386668,25,24,98,78,4.125352763,3
701.0078122,9.935254038,10.14711662,13.31289361,13.2870969,0.252561432,0.282926656,10.07107081,10.07107081,0.534204469,0.238169061,31.82064855,31.33852572,16.91386668,25,24,98,78,4.125352763,3
702.0078122,9.932092565,10.14980997,13.34450977,13.29823192,0.255762574,0.282811138,10.03458061,10.03458061,0.534233627,0.238239535,31.81956556,31.33783367,17.01431022,25,24,98,78,4.125352763,3
703.0078122,9.930709944,10.15028878,13.32381952,13.31902764,0.257734593,0.279660432,9.988068083,9.988068083,0.534256189,0.238307797,31.81842266,31.33717288,17.01431022,25,24,98,78,4.125352763,3
704.0078122,9.931679136,10.15114892,13.27808713,13.31552977,0.25918546,0.273318632,9.951824859,9.951824859,0.534277527,0.238373409,31.81734365,31.33655393,17.01431022,25,24,98,78,4.125352763,3
705.0078122,9.934087123,10.15384788,13.25064868,13.27137333,0.26089584,0.265097958,9.929448301,9.929448301,0.53430595,0.238444398,31.81630576,31.33592001,17.11302834,25,24,98,78,4.125352763,3
706.0078122,9.936251933,10.1563355,13.26424682,13.21319316,0.26257276,0.25702075,9.915212073,9.915212073,0.534339761,0.238518493,31.81527266,31.33534298,17.11302834,25,24,98,78,4.125352763,3
707.0078122,9.937448906,10.15794598,13.30189874,13.19904559,0.262946015,0.250663585,9.905868951,9.905868951,0.534374857,0.238581624,31.81426236,31.33464514,17.20370119,25,24,98,79,4.125352763,3
708.0078122,9.937936084,10.15923584,13.31284635,13.24731041,0.260870499,0.246447719,9.911172668,9.911172668,0.534417654,0.238641217,31.81334275,31.3339341,17.20370119,25,24,98,79,4.125352763,3
709.0078122,9.937842181,10.15992375,13.26714661,13.31312491,0.256208952,0.243779739,9.942215903,9.942215903,0.53446188,0.238705938,31.81238815,31.33326096,17.20370119,25,24,98,79,4.125352763,3
710.0078122,9.937099785,10.16043719,13.19155599,13.34843819,0.24981883,0.241708372,9.989116552,9.989116552,0.534512069,0.238765398,31.81150712,31.33253744,17.28127518,24,24,98,79,4.125352763,3
711.0078122,9.935991775,10.16150565,13.12902035,13.34968904,0.242994266,0.239512865,10.02541412,10.02541412,0.53457317,0.238823886,31.81061045,31.33180139,17.28127518,24,24,98,79,4.125352763,3
712.0078122,9.935130697,10.16163361,13.09509375,13.34214785,0.23693744,0.236963141,10.03547906,10.03547906,0.534636831,0.238887346,31.80957139,31.33105812,17.34208679,24,24,98,79,4.125352763,3
713.0078122,9.934751631,10.15798761,13.08507628,13.33788937,0.232428053,0.234306855,10.02656154,10.02656154,0.53470737,0.238942697,31.80853328,31.33030234,17.34208679,24,24,98,79,4.125352763,3
714.0078122,9.934345136,10.1503382,13.09056271,13.32306345,0.229679333,0.232083439,10.01329035,10.01329035,0.534781771,0.238991147,31.80768632,31.32960695,17.34208679,24,24,98,79,4.125352763,3
715.0078122,9.933424904,10.14245558,13.10205212,13.28470299,0.228466386,0.230823654,10.00091794,10.00091794,0.534850316,0.239035434,31.80684342,31.32899063,17.38374389,24,24,98,80,4.125352763,3
716.0078122,9.932452754,10.13821503,13.11296129,13.23641627,0.228482541,0.230702209,9.988847912,9.988847912,0.53493129,0.239084499,31.80584043,31.32833433,17.38374389,24,24,98,80,4.125352763,3
717.0078122,9.932141974,10.1370597,13.12475535,13.20800268,0.229632815,0.231346894,9.981627212,9.981627212,0.535019528,0.239122213,31.80480119,31.32762668,17.38374389,24,24,98,80,4.125352763,3
718.0078122,9.932306825,10.13569389,13.13777039,13.2139033,0.23201087,0.232042139,9.983965359,9.983965359,0.535113858,0.239159108,31.80383185,31.32698261,17.40487561,24,24,98,80,4.125352763,3
719.0078122,9.932142731,10.13313616,13.13418035,13.23403282,0.235696439,0.232333283,9.983923282,9.983923282,0.535210861,0.239220899,31.8029084,31.32631599,17.40487561,24,24,98,80,4.125352763,3
720.0078122,9.930848405,10.12981193,13.07352599,13.20895948,0.24071641,0.232550013,9.956835596,9.956835596,0.535318116,0.239269937,31.80199332,31.32577325,15.60936798,22,23,98,82,2.645025799,2
721.0078122,9.927674442,10.12148129,12.89850957,13.05363753,0.247554384,0.233886558,9.900301767,9.900301767,0.535427558,0.239302434,31.80101396,31.32519991,15.60936798,22,23,98,82,2.645025799,2
722.0078122,9.921949929,10.1001308,12.57175363,12.72397184,0.258090407,0.238228672,9.856069869,9.856069869,0.53553763,0.23934538,31.79997575,31.32442453,15.60936798,22,23,98,82,2.645025799,2
723.0078122,9.914471135,10.06612812,12.15923292,12.31154577,0.275487125,0.247764109,9.876514211,9.876514211,0.535645876,0.239402402,31.79894716,31.3237137,15.5841749,22,23,98,82,2.645025799,2
724.0078122,9.910914315,10.03343926,11.84139359,12.01635603,0.301064473,0.263627841,9.960808659,9.960808659,0.535764446,0.239433846,31.797949,31.32306968,15.5841749,22,23,98,82,2.645025799,2
725.0078122,9.919792054,10.01599329,11.76816684,11.95921408,0.329479551,0.28346901,10.04060471,10.04060471,0.53588513,0.239461215,31.79701774,31.32230697,15.53104346,22,22,98,81,2.645025799,2
726.0078122,9.937907585,10.01515593,11.9131552,12.0716358,0.34816636,0.300303017,10.05265807,10.05265807,0.536005014,0.239484587,31.79612959,31.32160879,15.53104346,22,22,98,81,2.645025799,2
727.0078122,9.946152123,10.02378723,12.09673794,12.19230787,0.344907973,0.305532631,10.00341907,10.00341907,0.536126931,0.239508285,31.79524743,31.32098268,15.53104346,22,22,98,81,2.645025799,2
728.0078122,9.935881551,10.03549756,12.14919749,12.19999507,0.31781336,0.294896121,9.937035684,9.937035684,0.536241755,0.239517198,31.79427539,31.32026961,15.44564947,21,22,98,81,2.645025799,2
729.0078122,9.922298615,10.04671547,12.04652965,12.07055323,0.27711659,0.271815178,9.880552471,9.880552471,0.536369106,0.239537564,31.79331636,31.31955153,15.44564947,21,22,98,81,2.645025799,2
730.0078122,9.918661948,10.05408007,11.88390391,11.87388594,0.237388718,0.244996496,9.840999742,9.840999742,0.53650288,0.239547876,31.79243718,31.31894553,15.3240764,21,22,98,81,2.645025799,2
731.0078122,9.92118133,10.05504097,11.75027459,11.70295002,0.208166753,0.222710947,9.820816684,9.820816684,0.536637028,0.239564854,31.79144382,31.31828186,15.3240764,21,22,98,81,2.645025799,2
732.0078122,9.92252385,10.0504913,11.6625592,11.59402348,0.191160325,0.208944888,9.820111267,9.820111267,0.536764059,0.239581573,31.79044431,31.31762544,15.16501923,20,22,98,80,2.645025799,2
733.0078122,9.921220926,10.04411229,11.59688792,11.53024199,0.183296303,0.203371118,9.832204878,9.832204878,0.53689296,0.239590704,31.7894447,31.31707156,15.16501923,20,22,98,80,2.645025799,2
734.0078122,9.918829279,10.03921552,11.54205267,11.4919699,0.180681964,0.203392762,9.843663746,9.843663746,0.537022781,0.239595262,31.78841679,31.31660716,15.16501923,20,22,98,80,2.645025799,2
735.0078122,9.916816423,10.03622795,11.50531238,11.47376347,0.180606133,0.206028497,9.844759941,9.844759941,0.537144839,0.239603353,31.78741983,31.316133,14.97150803,19,21,98,80,2.645025799,2
736.0078122,9.916131228,10.03367738,11.4878417,11.47430565,0.181731347,0.209031943,9.838082827,9.838082827,0.537268313,0.239607525,31.78639215,31.3156802,14.97150803,19,21,98,80,2.645025799,2
737.0078122,9.917315054,10.03208436,11.48294474,11.49249839,0.183554429,0.211522365,9.829670592,9.829670592,0.537383764,0.239609337,31.78543527,31.31514671,14.97150803,19,21,98,80,2.645025799,2
738.0078122,9.919845875,10.03367118,11.4873494,11.52432448,0.185844544,0.214070667,9.818064282,9.818064282,0.537503972,0.239614856,31.78440543,31.3146344,14.75155977,19,21,98,79,2.645025799,2
739.0078122,9.921575593,10.03767284,11.49896558,11.55717139,0.18833041,0.218014511,9.800110073,9.800110073,0.537620738,0.23961582,31.7834647,31.31409508,14.75155977,19,21,98,79,2.645025799,2
740.0078122,9.920551318,10.03989928,11.51520271,11.57543371,0.190677439,0.224250039,9.779238872,9.779238872,0.537728342,0.239616896,31.78257794,31.31367785,14.75155977,19,21,98,79,2.645025799,2
741.0078122,9.917517395,10.03695827,11.53703521,11.56969234,0.192650845,0.232175833,9.763347212,9.763347212,0.537820085,0.239622631,31.78172978,31.31316202,14.75155977,19,21,98,79,2.645025799,2
742.0078122,9.915006186,10.02939696,11.56005784,11.54108624,0.194257186,0.239558573,9.75904156,9.75904156,0.537925449,0.239631999,31.78079133,31.31260948,14.75155977,19,21,98,79,2.645025799,2
743.0078122,9.914186639,10.02134022,11.56623505,11.50386797,0.195644039,0.243566341,9.766563206,9.766563206,0.53801996,0.239638018,31.77977243,31.31210861,14.51745866,18,21,98,78,2.645025799,2
744.0078122,9.914316378,10.01758704,11.54246748,11.47695455,0.196850883,0.242661588,9.779186258,9.779186258,0.538111805,0.239640931,31.77889369,31.31159968,14.51745866,18,21,98,78,2.645025799,2
745.0078122,9.914824128,10.02093377,11.50455786,11.47339201,0.197638638,0.237772955,9.789977562,9.789977562,0.538192031,0.239641559,31.77801359,31.3110617,14.51745866,18,21,98,78,2.645025799,2
746.0078122,9.916236626,10.03091862,11.48724977,11.50202441,0.197564734,0.231526488,9.795937397,9.795937397,0.538268309,0.23963641,31.77714027,31.310584,14.51745866,18,21,98,78,2.645025799,2
747.0078122,9.91884946,10.04354416,11.50674954,11.55495618,0.196237705,0.226116552,9.794742278,9.794742278,0.538336923,0.239633025,31.77629506,31.31005401,14.28376822,17,20,98,77,2.645025799,2
748.0078122,9.921669564,10.05221033,11.54409,11.58968794,0.193622463,0.221966279,9.786376744,9.786376744,0.538402014,0.239634679,31.77547864,31.30956736,14.28376822,17,20,98,77,2.645025799,2
749.0078122,9.923495855,10.05209031,11.57440768,11.56664693,0.190229021,0.21838689,9.777936464,9.777936464,0.538465707,0.23963913,31.77463881,31.30910929,14.28376822,17,20,98,77,2.645025799,2
750.0078122,9.924122338,10.04518126,11.59774546,11.50297527,0.186960638,0.215076223,9.778030245,9.778030245,0.538523307,0.239638171,31.77377363,31.30865264,14.28376822,17,20,98,77,2.645025799,2
751.0078122,9.923733615,10.03768184,11.62118702,11.45307983,0.184615379,0.212608417,9.788320898,9.788320898,0.538578017,0.239643477,31.77304233,31.30819676,14.06457308,16,20,98,76,2.645025799,2
752.0078122,9.922229001,10.03348598,11.63136484,11.45238647,0.183443217,0.21166249,9.804030171,9.804030171,0.538620284,0.239640828,31.77228893,31.30769531,14.06457308,16,20,98,76,2.645025799,2
753.0078122,9.920013857,10.03365708,11.61079185,11.49295899,0.18316636,0.212204431,9.81851635,9.81851635,0.538665513,0.239646128,31.77148543,31.30720695,14.06457308,16,20,98,76,2.645025799,2
754.0078122,9.918265701,10.03777511,11.5626431,11.53417885,0.183362442,0.213503231,9.827528606,9.827528606,0.538711743,0.239656112,31.77061678,31.30679727,13.87070388,16,20,98,75,2.645025799,2
755.0078122,9.917574019,10.04242959,11.5085448,11.54512576,0.183742154,0.214685776,9.83145538,9.83145538,0.538753556,0.239632891,31.76975895,31.30633845,13.87070388,16,20,98,75,2.645025799,2
756.0078122,9.917551124,10.043451,11.4764637,11.54346496,0.184079205,0.215121649,9.831149982,9.831149982,0.538789887,0.239611279,31.76905735,31.30596101,13.87070388,16,20,98,75,2.645025799,2
757.0078122,9.918126255,10.04141075,11.480786,11.57051642,0.184059988,0.214529901,9.823663725,9.823663725,0.538827446,0.239621297,31.76830696,31.30556687,13.87070388,16,20,98,75,2.645025799,2
758.0078122,9.919581407,10.0400183,11.50215941,11.63236124,0.183408585,0.213022565,9.80758917,9.80758917,0.538850973,0.239629347,31.7675797,31.30515939,13.70772364,15,19,98,74,2.645025799,2
759.0078122,9.921356069,10.04011469,11.50314289,11.69409998,0.182201404,0.211101631,9.789813058,9.789813058,0.538858046,0.239637124,31.76694985,31.30470082,13.70772364,15,19,98,74,2.645025799,2
760.0078122,9.922553506,10.04018502,11.47271613,11.72261801,0.180936593,0.209440097,9.779940824,9.779940824,0.538863592,0.239650396,31.76639869,31.30420915,13.70772364,15,19,98,74,2.645025799,2
761.0078122,9.923301432,10.04021925,11.43850043,11.70797301,0.180198468,0.208505613,9.779092729,9.779092729,0.538872659,0.239654005,31.76588337,31.30381178,13.70772364,15,19,98,74,2.645025799,2
762.0078122,9.924190146,10.04132747,11.42670878,11.66065955,0.180252886,0.208329657,9.780547594,9.780547594,0.53888027,0.23966796,31.76544776,31.30330634,13.70772364,15,19,98,74,2.645025799,2
763.0078122,9.924617799,10.04301368,11.43255676,11.61250605,0.18095106,0.208649459,9.780193806,9.780193806,0.538898158,0.239678581,31.76516673,31.30279839,13.57523245,14,19,98,74,2.645025799,2
764.0078122,9.923336448,10.04367634,11.44178944,11.59940443,0.181960325,0.209289594,9.779416923,9.779416923,0.538915696,0.239685342,31.76490276,31.30233015,13.57523245,14,19,98,74,2.645025799,2
765.0078122,9.920939564,10.04396794,11.45781208,11.62849001,0.183061585,0.210326832,9.779629552,9.779629552,0.538921864,0.239708135,31.76454411,31.30181754,13.57523245,14,19,98,74,2.645025799,2
766.0078122,9.919493326,10.04567982,11.49107523,11.67234051,0.184244296,0.211754302,9.779978492,9.779978492,0.538932541,0.239714653,31.76410557,31.30127638,13.57523245,14,19,98,74,2.645025799,2
767.0078122,9.919430405,10.04732267,11.53192148,11.69777613,0.185539696,0.213017462,9.778750349,9.778750349,0.538949209,0.239724573,31.76376531,31.30073483,13.46765009,14,19,98,73,2.645025799,2
768.0078122,9.919302141,10.04579606,11.55557851,11.70194904,0.186811625,0.213130523,9.775364883,9.775364883,0.538966629,0.239752949,31.7633733,31.30031073,13.46765009,14,19,98,73,2.645025799,2
769.0078122,9.918377668,10.04079285,11.55698601,11.70252475,0.187773065,0.21148426,9.770849768,9.770849768,0.538985907,0.239760207,31.76299818,31.29981304,13.46765009,14,19,98,73,2.645025799,2
770.0078122,9.917595955,10.03448436,11.55776809,11.6940751,0.18816964,0.208569605,9.76515044,9.76515044,0.539002246,0.239776709,31.7625931,31.29933448,13.46765009,14,19,98,73,2.645025799,2
771.0078122,9.9180837,10.0297734,11.575111,11.66202231,0.187898325,0.205802362,9.757337367,9.757337367,0.539020314,0.239797581,31.76219418,31.29889189,13.46765009,14,19,98,73,2.645025799,2
772.0078122,9.919627274,10.02921623,11.60343753,11.62052717,0.186984853,0.204552549,9.749741277,9.749741277,0.539042594,0.239804275,31.76189433,31.2983566,13.37619732,14,19,98,72,2.645025799,2
773.0078122,9.920807041,10.03333016,11.6240182,11.59145317,0.185630294,0.205350188,9.748317789,9.748317789,0.539064508,0.239818336,31.76165628,31.29789813,13.37619732,14,19,98,72,2.645025799,2
774.0078122,9.920815465,10.04032956,11.61993683,11.57944047,0.184339378,0.20797642,9.757053277,9.757053277,0.539088686,0.239847558,31.76134103,31.29737914,13.37619732,14,19,98,72,2.645025799,2
775.0078122,9.920544083,10.04758437,11.59176618,11.58702636,0.183797866,0.212032957,9.771526051,9.771526051,0.539118057,0.239862424,31.76106805,31.29679238,13.37619732,14,19,98,72,2.645025799,2
776.0078122,9.920577479,10.05215899,11.56316856,11.61920666,0.184348471,0.217059697,9.781277185,9.781277185,0.539145086,0.239885616,31.7607478,31.29614965,13.29146143,13,19,98,72,2.645025799,2
777.0078122,9.919423261,10.051335,11.55703747,11.66663545,0.185522365,0.222108047,9.780920416,9.780920416,0.53917842,0.239911662,31.7604169,31.29558279,13.29146143,13,19,98,72,2.645025799,2
778.0078122,9.916004284,10.04537422,11.56907726,11.7094836,0.186232552,0.225660952,9.774390091,9.774390091,0.539208549,0.239935906,31.76007942,31.29518856,13.29146143,13,19,98,72,2.645025799,2
779.0078122,9.912259795,10.03863309,11.57888714,11.7385304,0.185572036,0.226420934,9.767336813,9.767336813,0.539231476,0.239941299,31.75970709,31.29474585,13.29146143,13,19,98,72,2.645025799,2
780.0078122,9.91103121,10.03498785,11.57755082,11.75368609,0.183481348,0.224290533,9.761915183,9.761915183,0.539260944,0.239957433,31.75928854,31.29418927,13.29146143,13,19,98,72,2.645025799,2
781.0078122,9.912845607,10.03357737,11.57087738,11.75066401,0.180720104,0.220534648,9.760723014,9.760723014,0.539286027,0.239971386,31.75887793,31.29366014,13.20580469,13,19,98,71,2.645025799,2
782.0078122,9.91588398,10.0321444,11.566188,11.73359089,0.178291361,0.216928971,9.767338603,9.767338603,0.539317182,0.239994414,31.75849315,31.29329415,13.20580469,13,19,98,71,2.645025799,2
783.0078122,9.917807573,10.03192903,11.56532405,11.7226517,0.176907908,0.214677734,9.778279304,9.778279304,0.539350358,0.240018185,31.75814143,31.29294591,13.20580469,13,19,98,71,2.645025799,2
784.0078122,9.917635186,10.03533789,11.56815772,11.72799007,0.176753046,0.213874679,9.783331822,9.783331822,0.539381869,0.240039732,31.75777962,31.2925476,13.20580469,13,19,98,71,2.645025799,2
785.0078122,9.916581818,10.04106088,11.57716414,11.73913236,0.177555595,0.213889198,9.779612452,9.779612452,0.539416033,0.24006237,31.75740786,31.292068,13.20580469,13,19,98,71,2.645025799,2
786.0078122,9.916217022,10.04501819,11.59132789,11.75008894,0.178821692,0.214173891,9.776279137,9.776279137,0.539456519,0.240078402,31.75700462,31.29159343,13.1149832,13,19,99,71,2.645025799,2
787.0078122,9.916287999,10.04552275,11.60438322,11.77070103,0.180079964,0.214614587,9.781638672,9.781638672,0.539494925,0.24009806,31.75655493,31.29119149,13.1149832,13,19,99,71,2.645025799,2
788.0078122,9.916080827,10.04564647,11.61197029,11.80145026,0.181021486,0.215125408,9.793430628,9.793430628,0.539529521,0.240114168,31.75618756,31.29084031,13.1149832,13,19,99,71,2.645025799,2
789.0078122,9.916589707,10.04986417,11.60751503,11.81785021,0.181505002,0.215213173,9.802677503,9.802677503,0.539563845,0.240136009,31.75584948,31.29040487,13.1149832,13,19,99,71,2.645025799,2
790.0078122,9.918972951,10.05818317,11.5858019,11.799638,0.181482413,0.214293551,9.802033342,9.802033342,0.539597704,0.240160186,31.75539005,31.2900588,13.1149832,13,19,99,71,2.645025799,2
791.0078122,9.922152801,10.06554644,11.56227305,11.75715019,0.180934479,0.212454366,9.791707695,9.791707695,0.539629184,0.240184825,31.75489377,31.28968002,13.0186345,14,19,99,70,2.645025799,2
792.0078122,9.923766467,10.06737258,11.56465333,11.71308911,0.179896814,0.210691173,9.780262517,9.780262517,0.539662763,0.24020269,31.75446564,31.28934826,13.0186345,14,19,99,70,2.645025799,2
793.0078122,9.922505153,10.06246663,11.59850282,11.6806512,0.178548139,0.210290877,9.777415139,9.777415139,0.539695143,0.240230335,31.75412197,31.28896242,13.0186345,14,19,99,70,2.645025799,2
794.0078122,9.919122687,10.05325083,11.63857987,11.66534593,0.17720883,0.211931221,9.784460735,9.784460735,0.539727612,0.240245048,31.75385381,31.28865402,13.0186345,14,19,99,70,2.645025799,2
795.0078122,9.915738724,10.04542967,11.6591191,11.66365887,0.176167716,0.215147547,9.793762251,9.793762251,0.539766144,0.240263483,31.75353899,31.28840609,13.0186345,14,19,99,70,2.645025799,2
796.0078122,9.913776789,10.04258895,11.66041278,11.66062794,0.175517249,0.218431851,9.798048062,9.798048062,0.539804702,0.24027665,31.7532292,31.28805613,13.0186345,14,19,99,70,2.645025799,2
797.0078122,9.913023438,10.04285041,11.65551522,11.64851625,0.17518286,0.220070459,9.796596654,9.796596654,0.539836903,0.240296986,31.75287677,31.28778907,12.91965544,14,19,99,70,2.645025799,2
798.0078122,9.912771098,10.04379198,11.64546695,11.64127046,0.175138281,0.219318205,9.791325695,9.791325695,0.539871219,0.240317,31.75250576,31.28757715,12.91965544,14,19,99,70,2.645025799,2
799.0078122,9.912386571,10.0451371,11.623308,11.65500834,0.175526358,0.216990812,9.782127948,9.782127948,0.539903327,0.240331755,31.75210337,31.28731398,12.91965544,14,19,99,70,2.645025799,2
800.0078122,9.911283173,10.04587326,11.58903239,11.68388333,0.176503275,0.214871739,9.768743741,9.768743741,0.539931143,0.240347273,31.7517108,31.28702311,12.91965544,14,19,99,70,2.645025799,2
801.0078122,9.909729808,10.04428008,11.55199291,11.70473943,0.177961087,0.214453471,9.755703047,9.755703047,0.539970698,0.240363951,31.75126087,31.2867177,12.91965544,14,19,99,70,2.645025799,2
802.0078122,9.908779443,10.04071297,11.52632208,11.70261016,0.179468962,0.216110948,9.753018429,9.753018429,0.54000197,0.240375302,31.75085133,31.28652271,12.91965544,14,19,99,70,2.645025799,2
803.0078122,9.908965527,10.03739406,11.52048516,11.68838407,0.180563173,0.219227452,9.766858421,9.766858421,0.540030696,0.240387047,31.75044753,31.28626319,12.8228062,14,19,99,70,2.645025799,2
804.0078122,9.910073675,10.03607223,11.52839717,11.68175469,0.181111817,0.22289431,9.788734588,9.788734588,0.540070339,0.240403661,31.75005414,31.28591,12.8228062,14,19,99,70,2.645025799,2
805.0078122,9.911693171,10.03692186,11.53792213,11.68381841,0.18134859,0.226478097,9.801198192,9.801198192,0.540102029,0.240427361,31.74976461,31.2855949,12.8228062,14,19,99,70,2.645025799,2
806.0078122,9.913198017,10.03948472,11.54488198,11.68248625,0.181527203,0.229666618,9.795986167,9.795986167,0.540136595,0.24044196,31.74945218,31.2852266,12.8228062,14,19,99,70,2.645025799,2
807.0078122,9.913836934,10.04305408,11.5534497,11.67655758,0.181593875,0.232126893,9.779298964,9.779298964,0.540161792,0.240457059,31.74922624,31.2849395,12.73304977,14,19,99,70,2.645025799,2
808.0078122,9.913379466,10.0448312,11.56877336,11.67880897,0.181231892,0.233224807,9.760303187,9.760303187,0.540186889,0.240464699,31.74892792,31.28455933,12.73304977,14,19,99,70,2.645025799,2
809.0078122,9.912684157,10.04159037,11.59144086,11.69198439,0.180170518,0.232130401,9.743857678,9.743857678,0.540209634,0.240475752,31.74870418,31.28427501,12.73304977,14,19,99,70,2.645025799,2
810.0078122,9.912983624,10.03512732,11.61515431,11.69776462,0.178397333,0.228315777,9.732891836,9.732891836,0.540232796,0.240490485,31.74858954,31.28398422,12.73304977,14,19,99,70,2.645025799,2
811.0078122,9.914357226,10.03144676,11.62862092,11.6831271,0.176115006,0.221950225,9.729208408,9.729208408,0.5402516,0.240506653,31.74844005,31.28363058,12.65413393,15,19,99,70,2.645025799,2
812.0078122,9.916024148,10.03431377,11.62380255,11.65875407,0.173595618,0.213873749,9.731776172,9.731776172,0.540285514,0.240512722,31.74829598,31.28332955,12.65413393,15,19,99,70,2.645025799,2
813.0078122,9.917791055,10.04272326,11.60556098,11.63733553,0.171115774,0.205323273,9.737336457,9.737336457,0.540313529,0.240518536,31.74823696,31.2830537,12.65413393,15,19,99,70,2.645025799,2
814.0078122,9.919573542,10.05274894,11.58671642,11.6142818,0.168977109,0.197703719,9.742249912,9.742249912,0.54033139,0.240522803,31.74823899,31.28269707,12.65413393,15,19,99,70,2.645025799,2
815.0078122,9.920551181,10.05990101,11.57387231,11.58251862,0.167499514,0.192348285,9.744320885,9.744320885,0.540355359,0.240524642,31.7482644,31.28232953,12.58777071,15,19,99,70,2.645025799,2
816.0078122,9.920482207,10.06198746,11.56879414,11.55125286,0.166916267,0.190119943,9.744022882,9.744022882,0.540380422,0.240530971,31.74824031,31.28197534,12.58777071,15,19,99,70,2.645025799,2
817.0078122,9.920295892,10.06038748,11.57458607,11.53647426,0.167222886,0.191013452,9.743455734,9.743455734,0.540405466,0.240532613,31.74821748,31.28156022,12.58777071,15,19,99,70,2.645025799,2
818.0078122,9.920330411,10.05751188,11.58622989,11.53911861,0.168119022,0.194079787,9.74412669,9.74412669,0.54043256,0.240533779,31.74829411,31.28112483,12.53353493,16,19,99,69,2.645025799,2
819.0078122,9.919880124,10.0544866,11.5886904,11.54483823,0.16914008,0.197790165,9.746451065,9.746451065,0.540453652,0.240533983,31.74844184,31.28077144,12.53353493,16,19,99,69,2.645025799,2
820.0078122,9.918849563,10.05200505,11.57759254,11.54585053,0.169913543,0.200669125,9.751246299,9.751246299,0.540478231,0.240521162,31.74855367,31.28044687,12.53353493,16,19,99,69,2.645025799,2
821.0078122,9.918050295,10.05135768,11.56712554,11.55012015,0.170353211,0.201885357,9.759079248,9.759079248,0.540502143,0.240521412,31.74865253,31.28011361,12.48937448,16,19,99,70,2.645025799,2
822.0078122,9.91803057,10.05318974,11.5668214,11.56168672,0.170663168,0.201514672,9.766675495,9.766675495,0.540520844,0.240518051,31.74877479,31.27982055,12.48937448,16,19,99,70,2.645025799,2
823.0078122,9.918625633,10.05585114,11.56598047,11.56900991,0.17117644,0.200333826,9.769403299,9.769403299,0.540537721,0.24050715,31.74896998,31.27941217,12.48937448,16,19,99,70,2.645025799,2
824.0078122,9.919034068,10.05638208,11.55023759,11.56274785,0.172156271,0.199292008,9.768675213,9.768675213,0.540555721,0.240504419,31.74919398,31.27895667,12.45246786,17,19,99,70,2.645025799,2
825.0078122,9.918554782,10.0537234,11.52106014,11.55177925,0.173657305,0.198971655,9.770485634,9.770485634,0.540581792,0.240498744,31.74944376,31.27853838,12.45246786,17,19,99,70,2.645025799,2
826.0078122,9.917662679,10.05030474,11.4955098,11.55391352,0.17550777,0.199385374,9.77729213,9.77729213,0.540605821,0.240496036,31.74976287,31.27816976,12.45246786,17,19,99,70,2.645025799,2
827.0078122,9.917236427,10.04951632,11.48854354,11.57220132,0.177414564,0.200205939,9.784900806,9.784900806,0.540623796,0.240497061,31.75006327,31.27782695,12.42011486,17,19,99,70,2.645025799,2
828.0078122,9.91692688,10.05148375,11.49346834,11.58746302,0.179113852,0.201221389,9.787077242,9.787077242,0.540638411,0.240492263,31.75042181,31.27739258,12.42011486,17,19,99,70,2.645025799,2
829.0078122,9.915756034,10.05308705,11.49412526,11.58304108,0.180447156,0.202607813,9.783450649,9.783450649,0.540657195,0.240486166,31.75074937,31.27700974,12.42011486,17,19,99,70,2.645025799,2
830.0078122,9.913850186,10.05223473,11.49341112,11.57155704,0.181321667,0.204699033,9.7802014,9.7802014,0.540675106,0.24048433,31.75110483,31.276688,12.42011486,17,19,99,70,2.645025799,2
831.0078122,9.912040354,10.04938983,11.50754088,11.58219661,0.181651916,0.20739487,9.781421121,9.781421121,0.540696533,0.240473421,31.75150817,31.27634061,12.42011486,17,19,99,70,2.645025799,2
832.0078122,9.910438863,10.04578778,11.53918993,11.62338251,0.181404933,0.209816514,9.785628118,9.785628118,0.540709684,0.240468798,31.75184706,31.2759831,12.39039863,17,19,99,70,2.645025799,2
833.0078122,9.909060349,10.0432136,11.57036261,11.6705765,0.18074142,0.210702795,9.790844963,9.790844963,0.540719652,0.240460262,31.75221726,31.275699,12.39039863,17,19,99,70,2.645025799,2
834.0078122,9.908985455,10.04438927,11.58288084,11.6908506,0.180097795,0.209340665,9.794716242,9.794716242,0.540734546,0.240454238,31.75262797,31.27535206,12.39039863,17,19,99,70,2.645025799,2
835.0078122,9.910999772,10.0504447,11.57929343,11.67628958,0.180025098,0.206199118,9.792619709,9.792619709,0.540740167,0.240446754,31.75297719,31.27503814,12.39039863,17,19,99,70,2.645025799,2
836.0078122,9.913993906,10.05892897,11.57180878,11.64919983,0.180799699,0.202683735,9.783880309,9.783880309,0.54075155,0.240436149,31.75330417,31.27468449,12.36247604,18,19,99,70,2.645025799,2
837.0078122,9.916530628,10.06655636,11.56217477,11.63349038,0.182106538,0.200265227,9.774096486,9.774096486,0.540758947,0.24042521,31.75371153,31.27435976,12.36247604,18,19,99,70,2.645025799,2
838.0078122,9.918371351,10.071547,11.55074953,11.63228849,0.183177216,0.199765507,9.767496732,9.767496732,0.540754913,0.24041026,31.75412158,31.27386934,12.36247604,18,19,99,70,2.645025799,2
839.0078122,9.919155187,10.07251983,11.54945535,11.63402593,0.183313898,0.20109989,9.763473925,9.763473925,0.540766503,0.240398197,31.7545297,31.27341578,12.33648962,18,19,99,70,2.645025799,2
840.0078122,9.918311954,10.06946372,11.56787275,11.62611264,0.182303048,0.203318234,9.760583148,9.760583148,0.540773646,0.240389394,31.75484231,31.27303476,12.33648962,18,19,99,70,2.645025799,2
841.0078122,9.916854251,10.06578717,11.59572344,11.60452937,0.180399324,0.204999976,9.759276227,9.759276227,0.540777816,0.24038616,31.75520755,31.27270143,12.33648962,18,19,99,70,2.645025799,2
842.0078122,9.916340809,10.06485893,11.60973385,11.58266097,0.178066266,0.205084444,9.760490125,9.760490125,0.540780542,0.240376125,31.75557864,31.27244496,12.31320439,19,19,99,70,2.645025799,2
843.0078122,9.916673551,10.06570644,11.59779182,11.58252991,0.17577869,0.203588937,9.763426995,9.763426995,0.540789249,0.240358879,31.75587972,31.27221567,12.31320439,19,19,99,70,2.645025799,2
844.0078122,9.91687348,10.06535292,11.5704993,11.60684606,0.17392841,0.201467956,9.766541069,9.766541069,0.540788264,0.240348537,31.75617362,31.2719134,12.31320439,19,19,99,70,2.645025799,2
845.0078122,9.916517567,10.06309984,11.54675024,11.6329614,0.172757683,0.199728851,9.768787864,9.768787864,0.540794897,0.240333692,31.75650988,31.27165943,12.29352946,19,19,99,70,2.645025799,2
846.0078122,9.915843367,10.06080487,11.53514601,11.64253754,0.172343413,0.198726466,9.768596926,9.768596926,0.540799378,0.240325917,31.75679878,31.27138968,12.29352946,19,19,99,70,2.645025799,2
847.0078122,9.915668126,10.06044635,11.53331577,11.64241603,0.172652549,0.198231423,9.7659676,9.7659676,0.540795916,0.240314085,31.75707682,31.27113798,12.29352946,19,19,99,70,2.645025799,2
848.0078122,9.916507364,10.06161179,11.53865387,11.64925548,0.173583222,0.197945506,9.764305873,9.764305873,0.540800431,0.240307931,31.7573481,31.27084027,12.27808346,19,19,99,70,2.645025799,2
849.0078122,9.917490945,10.06203901,11.55070002,11.66625765,0.174928605,0.197816421,9.765064396,9.765064396,0.540799381,0.240297607,31.75756055,31.27056204,12.27808346,19,19,99,70,2.645025799,2
850.0078122,9.917326944,10.06087272,11.56337406,11.68091517,0.176365963,0.197954891,9.76407869,9.76407869,0.540797437,0.240285023,31.75777773,31.27024372,12.27808346,19,19,99,70,2.645025799,2
851.0078122,9.915864505,10.05862871,11.56335582,11.67948051,0.177571241,0.198481832,9.757906409,9.757906409,0.540797869,0.240272102,31.75808149,31.26997114,12.26691752,20,19,99,70,2.645025799,2
852.0078122,9.914123671,10.05527552,11.54487645,11.66391932,0.178386471,0.199564849,9.749844031,9.749844031,0.540801429,0.240268512,31.75838851,31.26969702,12.26691752,20,19,99,70,2.645025799,2
853.0078122,9.913096566,10.05162932,11.5211785,11.65754164,0.178853713,0.201457294,9.745514657,9.745514657,0.540804962,0.240262709,31.75852966,31.26937398,12.26691752,20,19,99,70,2.645025799,2
854.0078122,9.912675107,10.0501987,11.50844194,11.6836286,0.179045767,0.204223627,9.745494092,9.745494092,0.540801333,0.240253011,31.75858085,31.26906975,12.25944432,20,19,99,70,2.645025799,2
855.0078122,9.912216496,10.05206139,11.50738199,11.72974971,0.178862558,0.207334327,9.746080505,9.746080505,0.540789187,0.240260702,31.75878326,31.26863282,12.25944432,20,19,99,70,2.645025799,2
856.0078122,9.911631539,10.05511206,11.51006318,11.75241889,0.178061058,0.209734237,9.745628068,9.745628068,0.540792264,0.24026086,31.758848,31.26825078,12.25944432,20,19,99,70,2.645025799,2
857.0078122,9.911424238,10.05758693,11.51116331,11.73098918,0.176566663,0.210536854,9.746938319,9.746938319,0.540796426,0.240257997,31.75891079,31.26778437,12.25456002,20,19,99,70,2.645025799,2
858.0078122,9.912244243,10.06056531,11.510526,11.69111449,0.174744711,0.209655496,9.753345312,9.753345312,0.540801349,0.24025188,31.75894975,31.26735298,12.25456002,20,19,99,70,2.645025799,2
859.0078122,9.914090867,10.06476593,11.51544941,11.66639425,0.173260367,0.207672948,9.763415879,9.763415879,0.540810363,0.240247686,31.75891339,31.26691296,12.25090513,20,19,99,70,2.645025799,2
860.0078122,9.916069996,10.06838686,11.53049619,11.66291389,0.172597546,0.205168058,9.771373145,9.771373145,0.540814724,0.240239254,31.75891154,31.26644004,12.25090513,20,19,99,70,2.645025799,2
861.0078122,9.917399733,10.06995603,11.54370494,11.66268257,0.17273659,0.202306196,9.774103071,9.774103071,0.540821521,0.240251362,31.75892169,31.26596306,12.25090513,20,19,99,70,2.645025799,2
862.0078122,9.917865753,10.07068352,11.54051032,11.64348174,0.173330321,0.199123347,9.774330507,9.774330507,0.540830679,0.240246135,31.75885413,31.26543357,12.24719488,20,18,99,70,2.645025799,2
863.0078122,9.917637054,10.07281427,11.52426044,11.60069882,0.174111438,0.196027141,9.774918981,9.774918981,0.540842675,0.240245821,31.75886679,31.26490371,12.24719488,20,18,99,70,2.645025799,2
864.0078122,9.917020101,10.07618572,11.51386107,11.55969685,0.175040488,0.193900828,9.775364961,9.775364961,0.540848645,0.240246622,31.75878078,31.26450378,12.24719488,20,18,99,70,2.645025799,2
865.0078122,9.915786081,10.0777767,11.52813933,11.5534335,0.176068519,0.193654252,9.774474927,9.774474927,0.540866473,0.240249598,31.75855173,31.26408389,12.2425533,21,18,99,70,2.645025799,2
866.0078122,9.91382424,10.07544625,11.56823963,11.58426737,0.17689569,0.195643843,9.771452411,9.771452411,0.540883521,0.240251863,31.75833777,31.26364759,12.2425533,21,18,99,70,2.645025799,2
867.0078122,9.912182754,10.06981222,11.61273877,11.6189644,0.177117719,0.199437343,9.766774151,9.766774151,0.540909123,0.240256762,31.75817091,31.26307716,12.2425533,21,18,99,70,2.645025799,2
868.0078122,9.911725938,10.06245382,11.63743868,11.62120087,0.176670161,0.20406995,9.76358647,9.76358647,0.540937213,0.240261621,31.75795595,31.2625137,12.23679851,21,18,99,70,2.645025799,2
869.0078122,9.912136613,10.05516844,11.6399821,11.58814384,0.176061753,0.208557989,9.764493836,9.764493836,0.540966084,0.240270212,31.75770365,31.26194696,12.23679851,21,18,99,70,2.645025799,2
870.0078122,9.912969905,10.05016535,11.64076392,11.54754964,0.176055137,0.212242948,9.768284051,9.768284051,0.541000626,0.240274109,31.75744974,31.26132954,12.23679851,21,18,99,70,2.645025799,2
871.0078122,9.914039533,10.04904873,11.65901891,11.51983578,0.177047426,0.214757134,9.771065222,9.771065222,0.541032937,0.240280456,31.75719299,31.26076585,12.23063722,21,18,99,70,2.645025799,2
872.0078122,9.915103446,10.05185151,11.68947504,11.50697749,0.178729156,0.215879333,9.769536195,9.769536195,0.541066107,0.240289641,31.75694714,31.2600738,12.23063722,21,18,99,70,2.645025799,2
873.0078122,9.915740429,10.05690989,11.70641374,11.50988935,0.180314817,0.21563087,9.76495928,9.76495928,0.541094237,0.240300765,31.75668703,31.2593672,12.2257326,21,18,99,70,2.645025799,2
874.0078122,9.915475238,10.06157285,11.69601302,11.52993009,0.181098099,0.214448169,9.763147872,9.763147872,0.541130164,0.240312331,31.75639226,31.25864719,12.2257326,21,18,99,70,2.645025799,2
875.0078122,9.914376718,10.06316542,11.66714726,11.56192364,0.180840506,0.212960589,9.768101554,9.768101554,0.541157455,0.240326538,31.75609453,31.25791492,12.2257326,21,18,99,70,2.645025799,2
876.0078122,9.913214868,10.06097058,11.63027642,11.59377841,0.179747418,0.211473085,9.777068413,9.777068413,0.541197599,0.240340314,31.75586425,31.257104,12.22461497,21,18,99,70,2.645025799,2
877.0078122,9.912893084,10.05722609,11.58598958,11.6149474,0.178249629,0.209806075,9.78353256,9.78353256,0.541235145,0.240360032,31.75551541,31.2562374,12.22461497,21,18,99,70,2.645025799,2
878.0078122,9.913802482,10.0542158,11.53988253,11.62583183,0.176846202,0.207790991,9.783821582,9.783821582,0.541277929,0.240371772,31.7550928,31.25547298,12.22461497,21,18,99,70,2.645025799,2
879.0078122,9.91507371,10.05167188,11.51166205,11.63339694,0.175997504,0.205769119,9.778655369,9.778655369,0.541329106,0.240390739,31.75467176,31.25469928,12.23041674,21,18,99,70,2.645025799,2
880.0078122,9.91539099,10.04955806,11.52205996,11.63920889,0.175961327,0.204394983,9.769919057,9.769919057,0.541374388,0.24040837,31.75424753,31.25391754,12.23041674,21,18,99,70,2.645025799,2
881.0078122,9.914886712,10.04972602,11.57290545,11.64021771,0.176672391,0.203981875,9.759935986,9.759935986,0.541422561,0.240426365,31.7538935,31.25315287,12.23041674,21,18,99,70,2.645025799,2
882.0078122,9.914615401,10.05207238,11.64263828,11.63875596,0.177798017,0.204207905,9.752784998,9.752784998,0.541471271,0.240451925,31.75353745,31.25239939,12.23041674,21,18,99,70,2.645025799,2
883.0078122,9.914795654,10.05349223,11.70104049,11.63949182,0.178924465,0.204485443,9.752435493,9.752435493,0.541512669,0.240471184,31.75311165,31.25167665,12.2464402,21,18,99,70,2.645025799,2
884.0078122,9.915173696,10.05237851,11.72919193,11.63683176,0.179765505,0.204494672,9.759005423,9.759005423,0.54156423,0.240479065,31.75269155,31.25093082,12.2464402,21,18,99,70,2.645025799,2
885.0078122,9.915882121,10.05054062,11.72969483,11.62115396,0.18029402,0.204332406,9.767612287,9.767612287,0.541614884,0.240492937,31.75220284,31.25024579,12.2464402,21,18,99,70,2.645025799,2
886.0078122,9.916897144,10.05062376,11.71557213,11.5975624,0.180691406,0.204323196,9.771983391,9.771983391,0.541660296,0.240502716,31.7518549,31.24948577,12.2464402,21,18,99,70,2.645025799,2
887.0078122,9.917837574,10.05370879,11.69143713,11.58384605,0.181153958,0.20483153,9.770705358,9.770705358,0.541712033,0.240519238,31.75157872,31.24874716,12.2756055,21,18,99,70,2.645025799,2
888.0078122,9.918547381,10.05843574,11.65711448,11.5915308,0.181755886,0.206079874,9.768992037,9.768992037,0.541757503,0.240539436,31.75115624,31.2478903,12.2756055,21,18,99,70,2.645025799,2
889.0078122,9.918717175,10.06151595,11.62380944,11.61288168,0.182431205,0.207786816,9.772475476,9.772475476,0.541805982,0.240548524,31.75071445,31.24705214,12.31986807,21,18,99,69,2.645025799,2
890.0078122,9.917658613,10.06025075,11.60794568,11.62431672,0.182967363,0.208944637,9.779904399,9.779904399,0.541852932,0.240570024,31.75035755,31.2461583,12.31986807,21,18,99,69,2.645025799,2
891.0078122,9.915715454,10.05601201,11.60983297,11.60958578,0.182986162,0.208324867,9.784678512,9.784678512,0.541893764,0.240582766,31.75000942,31.24529486,12.37972178,21,19,99,69,2.645025799,2
892.0078122,9.914525307,10.0540369,11.60990265,11.58156341,0.182072992,0.205538399,9.782996027,9.782996027,0.541933636,0.240597519,31.749667,31.24450442,12.37972178,21,19,99,69,2.645025799,2
893.0078122,9.914888877,10.05692013,11.58830557,11.57028362,0.180100835,0.201575093,9.777225324,9.777225324,0.541971704,0.240603952,31.74928391,31.24369101,12.37972178,21,19,99,69,2.645025799,2
894.0078122,9.91586112,10.06055408,11.54796227,11.58675448,0.17748629,0.198171956,9.772634426,9.772634426,0.542011856,0.240619785,31.74895055,31.24284515,12.45390348,21,19,99,69,2.645025799,2
895.0078122,9.916553079,10.06017869,11.5172392,11.61326266,0.175049866,0.196643394,9.773056304,9.773056304,0.542048861,0.240626765,31.74848587,31.24209031,12.45390348,21,19,99,69,2.645025799,2
896.0078122,9.917148909,10.05694963,11.52378964,11.63266978,0.17351542,0.197215636,9.778504717,9.778504717,0.54208598,0.240636408,31.74807668,31.24133274,12.53937936,21,19,99,69,2.645025799,2
897.0078122,9.917879662,10.05542766,11.56725655,11.64791571,0.173074201,0.199148307,9.7859969,9.7859969,0.542118317,0.240651175,31.74763651,31.24047528,12.53937936,21,19,99,69,2.645025799,2
898.0078122,9.918404627,10.05736498,11.62369022,11.66672735,0.173381845,0.201277099,9.792181788,9.792181788,0.542149545,0.240663664,31.74712233,31.23976454,12.53937936,21,19,99,69,2.645025799,2
899.0078122,9.918317161,10.06065968,11.66386024,11.68490201,0.173941827,0.202660267,9.795581624,9.795581624,0.542176901,0.240674616,31.74662958,31.23905157,12.63163207,21,19,99,69,2.645025799,2
900.0078122,9.918163466,10.06357736,11.66790379,11.69487852,0.174510871,0.203122577,9.797571296,9.797571296,0.542198406,0.240690429,31.74623482,31.23828689,12.63163207,21,19,99,69,2.645025799,2
901.0078122,9.919068631,10.06585372,11.64577048,11.6967742,0.175200755,0.203349412,9.799762284,9.799762284,0.542217708,0.240693097,31.74588168,31.23749273,12.63163207,21,19,99,69,2.645025799,2
902.0078122,9.920539462,10.06581754,11.63177102,11.69320443,0.176238269,0.204297254,9.800039234,9.800039234,0.542233279,0.240700077,31.74540901,31.23658695,12.72519635,21,19,99,69,2.645025799,2
903.0078122,9.920770133,10.06196616,11.64337837,11.68886587,0.177645645,0.20626704,9.794459705,9.794459705,0.542245572,0.240716393,31.74483609,31.23567655,12.72519635,21,19,99,69,2.645025799,2
904.0078122,9.919576581,10.05648266,11.66138451,11.69138338,0.17912358,0.208418971,9.783370431,9.783370431,0.542256022,0.240732037,31.74433523,31.23481213,12.72519635,21,19,99,69,2.645025799,2
905.0078122,9.918480549,10.05301767,11.65420114,11.69777601,0.180238163,0.209282971,9.772548377,9.772548377,0.54226771,0.240740638,31.7438071,31.23399438,12.81433268,21,19,99,69,2.645025799,2
906.0078122,9.91828751,10.05334817,11.61298763,11.6985132,0.180753317,0.20795952,9.767139191,9.767139191,0.542272795,0.240745328,31.74329953,31.2332545,12.81433268,21,19,99,69,2.645025799,2
907.0078122,9.918441272,10.05739859,11.55940021,11.69763283,0.18081532,0.204951359,9.766994912,9.766994912,0.542288115,0.240749776,31.74278194,31.23235652,12.81433268,21,19,99,69,2.645025799,2
908.0078122,9.918250705,10.06375435,11.52201786,11.70337639,0.180819369,0.201829764,9.769577512,9.769577512,0.54229251,0.240751854,31.74225285,31.2315384,12.89370046,21,19,99,69,2.645025799,2
909.0078122,9.917846411,10.0706095,11.51463935,11.7116325,0.181094767,0.200092259,9.773289911,9.773289911,0.54229693,0.240758921,31.74178666,31.23070544,12.89370046,21,19,99,69,2.645025799,2
910.0078122,9.91764707,10.07617052,11.53195896,11.7147125,0.181703675,0.200268472,9.775340172,9.775340172,0.542300877,0.240768407,31.7412127,31.22985657,12.95890363,21,19,99,69,2.645025799,2
911.0078122,9.917682357,10.07854506,11.55671916,11.71072531,0.182479788,0.201879664,9.771640462,9.771640462,0.542308386,0.24076806,31.74064118,31.22881941,12.95890363,21,19,99,69,2.645025799,2
912.0078122,9.917970251,10.07759272,11.57460693,11.70429375,0.18318723,0.204024726,9.763054731,9.763054731,0.542310716,0.240776202,31.73999767,31.22783755,12.95890363,21,19,99,69,2.645025799,2
913.0078122,9.918316982,10.07418815,11.58173351,11.70126307,0.183647105,0.206016158,9.756824639,9.756824639,0.542312496,0.240781844,31.73932269,31.22693925,13.00682896,21,19,99,70,2.645025799,2
914.0078122,9.917962545,10.06793669,11.58209686,11.69720799,0.183791263,0.207710686,9.757977303,9.757977303,0.542318049,0.240793215,31.73867463,31.22599195,13.00682896,21,19,99,70,2.645025799,2
915.0078122,9.916559162,10.06036968,11.58589421,11.68366427,0.183654451,0.209470291,9.764236346,9.764236346,0.54232005,0.240798888,31.73794728,31.22515386,13.00682896,21,19,99,70,2.645025799,2
916.0078122,9.914913688,10.05613361,11.59975965,11.66692872,0.183355952,0.211814959,9.771307665,9.771307665,0.542321595,0.240807725,31.73725404,31.22429009,13.03576463,21,19,99,70,2.645025799,2
917.0078122,9.914049245,10.05621621,11.61349639,11.66055829,0.183116551,0.214772676,9.778564239,9.778564239,0.542317848,0.240825912,31.73669381,31.22340957,13.03576463,21,19,99,70,2.645025799,2
918.0078122,9.913747492,10.05552466,11.61365844,11.66106642,0.183263293,0.217399388,9.786987171,9.786987171,0.542314136,0.240834444,31.73607663,31.22245022,13.03576463,21,19,99,70,2.645025799,2
919.0078122,9.913140042,10.05094836,11.60654907,11.65149571,0.184062495,0.218202602,9.792372699,9.792372699,0.542308671,0.24085229,31.73546033,31.22148264,13.04535232,20,19,99,70,2.645025799,2
920.0078122,9.912811834,10.04647153,11.6057725,11.62663153,0.185406312,0.216424866,9.787751179,9.787751179,0.542307846,0.240874954,31.73475313,31.2205298,13.04535232,20,19,99,70,2.645025799,2
921.0078122,9.914106029,10.04659183,11.60990496,11.60118718,0.186688856,0.212975527,9.776257812,9.776257812,0.542314268,0.240891671,31.7339792,31.21967599,13.04535232,20,19,99,70,2.645025799,2
922.0078122,9.916486457,10.05021579,11.6102906,11.59751964,0.187116726,0.20993968,9.770775603,9.770775603,0.542311627,0.240909374,31.73327577,31.21881639,13.03646492,20,19,99,70,2.645025799,2
923.0078122,9.918107743,10.05463425,11.60512352,11.62375098,0.186235225,0.20907228,9.77717702,9.77717702,0.542319606,0.240925074,31.73244943,31.21783505,13.03646492,20,19,99,70,2.645025799,2
924.0078122,9.918320649,10.05983209,11.59550994,11.65890811,0.184229594,0.210656517,9.787401362,9.787401362,0.542314038,0.240947745,31.73158484,31.21677719,13.03646492,20,19,99,70,2.645025799,2
925.0078122,9.917766426,10.06597834,11.58171909,11.67451085,0.181819137,0.213583125,9.791333634,9.791333634,0.542313816,0.240979754,31.73076315,31.2156967,13.01109883,19,19,99,70,2.645025799,2
926.0078122,9.917113067,10.0705192,11.56741411,11.6717675,0.179903105,0.216378772,9.788672426,9.788672426,0.542321764,0.241000212,31.7298944,31.21454978,13.01109883,19,19,99,70,2.645025799,2
927.0078122,9.916683558,10.06991563,11.55960323,11.67771109,0.179180486,0.218310691,9.785805321,9.785805321,0.542322522,0.241027884,31.72892086,31.21354738,13.01109883,19,19,99,70,2.645025799,2
928.0078122,9.916428938,10.06399449,11.56520782,11.70523956,0.179905038,0.219800842,9.786505871,9.786505871,0.542327608,0.241047278,31.72789718,31.21254449,12.97232326,19,19,99,71,2.645025799,2
929.0078122,9.916054887,10.05761245,11.58748973,11.73521476,0.181792805,0.222058328,9.78941008,9.78941008,0.542332163,0.241071889,31.7269977,31.21153887,12.97232326,19,19,99,71,2.645025799,2
930.0078122,9.915271561,10.05552662,11.62203494,11.74129048,0.184120218,0.226154336,9.791911119,9.791911119,0.542336528,0.241106696,31.72610981,31.2104632,12.97232326,19,19,99,71,2.645025799,2
931.0078122,9.914026303,10.05653847,11.65629992,11.71900125,0.185938527,0.231989335,9.794380482,9.794380482,0.542343538,0.241141638,31.72506199,31.20941519,12.92425889,18,19,99,71,2.645025799,2
932.0078122,9.913042181,10.05606001,11.67607153,11.68552313,0.186367463,0.237818202,9.799278646,9.799278646,0.542352639,0.241168326,31.72407379,31.20838225,12.92425889,18,19,99,71,2.645025799,2
933.0078122,9.913253085,10.05277315,11.67587565,11.65862824,0.184988768,0.241068571,9.806906224,9.806906224,0.5423617,0.241207506,31.72307639,31.20729356,12.92425889,18,19,99,71,2.645025799,2
934.0078122,9.914316743,10.04935857,11.66170931,11.6417316,0.1822158,0.240243688,9.814821225,9.814821225,0.542379955,0.241237852,31.72207062,31.20614214,12.87199648,18,19,99,72,2.645025799,2
935.0078122,9.91514515,10.04766485,11.64240064,11.62936345,0.17925158,0.236238357,9.820397398,9.820397398,0.542403286,0.241278482,31.72103554,31.20506299,12.87199648,18,19,99,72,2.645025799,2
936.0078122,9.915279139,10.04678662,11.62407006,11.6238952,0.177402843,0.231530316,9.822585369,9.822585369,0.542417014,0.241314377,31.71995657,31.20404938,12.87199648,18,19,99,72,2.645025799,2
937.0078122,9.914709994,10.04643966,11.61184233,11.63774898,0.177197906,0.227955942,9.822120459,9.822120459,0.542431302,0.241337246,31.71900849,31.20302457,12.8213479,17,18,99,72,2.645025799,2
938.0078122,9.914000805,10.04824319,11.60591279,11.6704353,0.178126679,0.225442758,9.820049275,9.820049275,0.542438206,0.241365781,31.71805533,31.20192681,12.8213479,17,18,99,72,2.645025799,2
939.0078122,9.914606393,10.05227867,11.59972079,11.6962924,0.179235309,0.222879523,9.817551404,9.817551404,0.54245445,0.241390868,31.7170009,31.20082701,12.8213479,17,18,99,72,2.645025799,2
940.0078122,9.917105364,10.05641511,11.59476076,11.69493569,0.179921419,0.219804667,9.817730447,9.817730447,0.542472023,0.241421364,31.71597958,31.19968071,12.77836333,17,18,99,73,2.645025799,2
941.0078122,9.919884542,10.05969507,11.60908728,11.67786894,0.180176748,0.216908602,9.822541675,9.822541675,0.542486268,0.241453579,31.7148809,31.19850469,12.77836333,17,18,99,73,2.645025799,2
942.0078122,9.921183252,10.06262375,11.65613396,11.66484624,0.180228723,0.215102997,9.827947145,9.827947145,0.54250103,0.241482625,31.71384832,31.19731337,12.77836333,17,18,99,73,2.645025799,2
943.0078122,9.921307958,10.0651167,11.72112257,11.65657558,0.18016654,0.214445113,9.827621597,9.827621597,0.542515012,0.241510335,31.71285583,31.19615556,12.77836333,17,18,99,73,2.645025799,2
944.0078122,9.921397393,10.06628737,11.77076546,11.64184334,0.179962795,0.21412561,9.81968298,9.81968298,0.542531552,0.241536994,31.71177504,31.19506916,12.77836333,17,18,99,73,2.645025799,2
945.0078122,9.921164665,10.06470378,11.78452369,11.61828166,0.179713983,0.213322729,9.807825926,9.807825926,0.542550991,0.241567765,31.71081954,31.19396417,12.7486387,16,18,99,73,2.645025799,2
946.0078122,9.919563054,10.06014552,11.77024879,11.60210282,0.179655392,0.211921493,9.798423195,9.798423195,0.5425716,0.241593828,31.70990733,31.19282656,12.7486387,16,18,99,73,2.645025799,2
947.0078122,9.916925782,10.05619242,11.7478237,11.60905705,0.179867898,0.210434614,9.794934442,9.794934442,0.542600419,0.24161903,31.70874258,31.19178589,12.7486387,16,18,99,73,2.645025799,2
948.0078122,9.914655247,10.05707138,11.72543512,11.63339147,0.180052682,0.209346532,9.794922039,9.794922039,0.542634351,0.241632585,31.70762892,31.1907659,12.7486387,16,18,99,73,2.645025799,2
949.0078122,9.913244994,10.06177353,11.70120359,11.66109206,0.179727004,0.208599911,9.79577254,9.79577254,0.542669638,0.241651081,31.70653237,31.18966936,12.73653798,16,18,99,74,2.645025799,2
950.0078122,9.91239556,10.06578468,11.67615621,11.68941064,0.178739043,0.207702358,9.798657938,9.798657938,0.54270574,0.241667442,31.70540051,31.18861693,12.73653798,16,18,99,74,2.645025799,2
951.0078122,9.912412352,10.06779549,11.65593187,11.7199199,0.177631734,0.206289267,9.80409557,9.80409557,0.542744674,0.241678485,31.70420244,31.18761987,12.73653798,16,18,99,74,2.645025799,2
952.0078122,9.91367882,10.07016024,11.64909183,11.74682876,0.177492973,0.204571625,9.809487554,9.809487554,0.542776784,0.241691907,31.70307035,31.18658512,12.73653798,16,18,99,74,2.645025799,2
953.0078122,9.915247072,10.07276464,11.6584075,11.76483921,0.179368254,0.20327842,9.812499851,9.812499851,0.542814765,0.241704751,31.7020337,31.18565585,12.74451923,16,18,99,75,2.645025799,2
954.0078122,9.915475387,10.07166885,11.67475832,11.7749873,0.183635303,0.203191647,9.814076954,9.814076954,0.542852269,0.241724147,31.70091532,31.18465591,12.74451923,16,18,99,75,2.645025799,2
955.0078122,9.914443877,10.0658798,11.68931418,11.77590294,0.189664799,0.204697239,9.815938906,9.815938906,0.542894464,0.241724443,31.69988785,31.18366955,12.74451923,16,18,99,75,2.645025799,2
956.0078122,9.914248267,10.06053484,11.69609689,11.76953257,0.195995168,0.207640675,9.816247201,9.816247201,0.542941239,0.241728503,31.6989445,31.18262766,12.74451923,16,18,99,75,2.645025799,2
957.0078122,9.915779546,10.06068819,11.68602078,11.77131219,0.200957013,0.211535701,9.81253568,9.81253568,0.542981059,0.241727625,31.69796516,31.18169661,12.77274619,16,19,99,75,2.645025799,2
958.0078122,9.917107531,10.06477448,11.65980281,11.78575427,0.203403486,0.215929208,9.808234485,9.808234485,0.543031132,0.24172561,31.69698586,31.1806803,12.77274619,16,19,99,75,2.645025799,2
959.0078122,9.916340762,10.06638335,11.63259677,11.78912076,0.203127176,0.220711725,9.810162027,9.810162027,0.543070971,0.241712775,31.69592106,31.17963414,12.77274619,16,19,99,75,2.645025799,2
960.0078122,9.914357118,10.06231553,11.61608655,11.76450648,0.200817794,0.226162099,9.81857193,9.81857193,0.543119302,0.241706357,31.69482696,31.1786198,12.77274619,16,19,99,75,2.645025799,2
961.0078122,9.913271558,10.05620391,11.61377879,11.72775229,0.197643606,0.232555096,9.824530873,9.824530873,0.543167385,0.24169244,31.69367096,31.17760617,12.77274619,16,19,99,75,2.645025799,2
962.0078122,9.913435928,10.05286745,11.62707138,11.69891916,0.19462882,0.23949552,9.820175272,9.820175272,0.543214436,0.241680985,31.6926592,31.17666666,12.81908778,16,19,99,76,2.645025799,2
963.0078122,9.913643943,10.05265265,11.64913712,11.68020424,0.192184121,0.245588277,9.808262826,9.808262826,0.54326646,0.241675774,31.69162603,31.17577461,12.81908778,16,19,99,76,2.645025799,2
964.0078122,9.913421007,10.05263107,11.66651988,11.67492496,0.190166433,0.248960035,9.797853769,9.797853769,0.543316384,0.241658063,31.69055657,31.17477893,12.81908778,16,19,99,76,2.645025799,2
965.0078122,9.913625529,10.05116161,11.67615658,11.69349568,0.188364262,0.248377365,9.79464296,9.79464296,0.543358271,0.241644479,31.68947061,31.17383292,12.81908778,16,19,99,76,2.645025799,2
966.0078122,9.915077903,10.05025191,11.68651816,11.73164699,0.186837295,0.244046436,9.799697043,9.799697043,0.543412741,0.241638346,31.6883441,31.17290454,12.81908778,16,19,99,76,2.645025799,2
967.0078122,9.917104717,10.0526548,11.70007485,11.76855393,0.18574647,0.237372547,9.810505109,9.810505109,0.543462686,0.241621459,31.68728768,31.17195978,12.87948835,16,19,98,76,2.645025799,2
968.0078122,9.917891591,10.05673604,11.71005158,11.78160725,0.184974707,0.229992058,9.819484243,9.819484243,0.543508978,0.241607873,31.68625765,31.17104054,12.87948835,16,19,98,76,2.645025799,2
969.0078122,9.916912762,10.05770562,11.71355063,11.75603,0.184031589,0.222872016,9.820092295,9.820092295,0.543568369,0.241588981,31.68510364,31.16999578,12.87948835,16,19,98,76,2.645025799,2
970.0078122,9.91595506,10.05586356,11.7133401,11.70210113,0.182419489,0.21620487,9.815128561,9.815128561,0.543626701,0.241566361,31.68412761,31.16917243,12.87948835,16,19,98,76,2.645025799,2
971.0078122,9.916720244,10.05744031,11.70548907,11.65333152,0.180094986,0.209943596,9.813040267,9.813040267,0.54368303,0.241545208,31.68313208,31.16842425,12.87948835,16,19,98,76,2.645025799,2
972.0078122,9.918612887,10.06431971,11.68116725,11.63293543,0.177568595,0.204293932,9.817487154,9.817487154,0.543740263,0.241522251,31.68205195,31.1676523,12.94858274,16,19,98,77,2.645025799,2
973.0078122,9.919871774,10.07055603,11.64573547,11.63883747,0.175542654,0.19968445,9.82302872,9.82302872,0.543794935,0.241502764,31.6810832,31.16673321,12.94858274,16,19,98,77,2.645025799,2
974.0078122,9.920007924,10.07128203,11.61874197,11.65485631,0.174403098,0.196376183,9.821301984,9.821301984,0.543855634,0.241483929,31.68002851,31.16585917,12.94858274,16,19,98,77,2.645025799,2
975.0078122,9.920011174,10.06827848,11.61167506,11.66454919,0.173979463,0.194209503,9.811223057,9.811223057,0.54390931,0.241468525,31.67886746,31.1649289,12.94858274,16,19,98,77,2.645025799,2
976.0078122,9.920606988,10.06542864,11.62029112,11.66513391,0.173749707,0.192744535,9.800466357,9.800466357,0.543961124,0.241449124,31.67778273,31.16402823,13.02037672,16,19,98,77,2.645025799,2
977.0078122,9.92166477,10.06412647,11.63643135,11.66809674,0.173306119,0.191634345,9.795067266,9.795067266,0.544022641,0.241425809,31.6766723,31.16324524,13.02037672,16,19,98,77,2.645025799,2
978.0078122,9.922983635,10.06424487,11.65366438,11.68299742,0.17268761,0.190889035,9.792540113,9.792540113,0.544075106,0.241411742,31.67551614,31.16246834,13.02037672,16,19,98,77,2.645025799,2
979.0078122,9.924382591,10.06587343,11.66581336,11.70836075,0.1723214,0.19078832,9.788487228,9.788487228,0.544128622,0.241391648,31.6744722,31.16165296,13.08883246,17,20,98,78,2.645025799,2
980.0078122,9.925634005,10.06929841,11.67375065,11.73307256,0.172672973,0.191508963,9.782152176,9.782152176,0.544182485,0.241368179,31.67340535,31.16079197,13.08883246,17,20,98,78,2.645025799,2
981.0078122,9.926879579,10.07414928,11.68722624,11.73885377,0.173899037,0.192843111,9.774045276,9.774045276,0.54423448,0.241354156,31.6723242,31.15995267,13.08883246,17,20,98,78,2.645025799,2
982.0078122,9.928038605,10.07851318,11.71295595,11.71890994,0.175683344,0.194307659,9.767017197,9.767017197,0.544294839,0.241334644,31.67121204,31.15908261,13.08883246,17,20,98,78,2.645025799,2
