Time (s),Waist Acceleration,Chest Acceleration,Left Ankle Acceleration,right Ankle Acceleration,EMG_magnitude_left,EMG_magnitude_right,left wrist Acceleration,right wrist Acceleration,left wrist electrodermal,right wrist electrodermal,left wrist Temperature,right wrist Temperature,VO2,Breath Frequency,Minute Ventilation,SpO2,Heart Rate,Energy expenditures (W/kg) ,Activity Code
360.0078122,9.921414833,9.934124383,9.794338608,9.954776414,0.098590105,0.107974908,9.779581806,9.779581806,0.071874524,0.142528902,35.32729985,36.72006465,5.418810493,17,11,100,89,1.314074935,1
361.0078122,9.926439736,9.946532263,9.843831555,10.01982389,0.103897669,0.121368753,9.765080852,9.765080852,0.071857916,0.142546853,35.32575617,36.72197863,11.33870541,21,21,99,90,1.314074935,1
362.0078122,9.935947329,9.969768059,9.9668552,10.15042193,0.112752643,0.143212087,9.771434189,9.771434189,0.071842949,0.142569733,35.32393154,36.72353218,11.33870541,21,21,99,90,1.314074935,1
363.0078122,9.948740276,10.00207735,10.19101641,10.34594483,0.124518313,0.170644761,9.787449236,9.787449236,0.071835089,0.142589912,35.32177242,36.72507933,11.33870541,21,21,99,90,1.314074935,1
364.0078122,9.96186977,10.03468721,10.48391995,10.56034334,0.13713641,0.197666632,9.797701335,9.797701335,0.071827725,0.142613108,35.31929958,36.72651878,11.3540871,21,21,99,90,1.314074935,1
365.0078122,9.972166103,10.05678825,10.74252948,10.7289158,0.148865118,0.217880831,9.798909549,9.798909549,0.071825414,0.142635111,35.31670523,36.72789527,11.3540871,21,21,99,90,1.314074935,1
366.0078122,9.977254442,10.06364648,10.87359939,10.82402309,0.159139739,0.227884827,9.797035867,9.797035867,0.071823011,0.142659862,35.31362787,36.72894962,11.3540871,21,21,99,90,1.314074935,1
367.0078122,9.977658262,10.06027689,10.87902833,10.86397798,0.167892648,0.228676072,9.795528345,9.795528345,0.071826863,0.142686598,35.31037602,36.72984405,11.38480212,21,21,99,90,1.314074935,1
368.0078122,9.976174622,10.0561116,10.82945065,10.87600986,0.174692089,0.223992325,9.791413714,9.791413714,0.071832427,0.142710879,35.3067549,36.7305225,11.38480212,21,21,99,90,1.314074935,1
369.0078122,9.974610943,10.05511062,10.78546945,10.87781164,0.179073781,0.217426839,9.782651046,9.782651046,0.07183754,0.142730798,35.3028424,36.73100265,11.43050445,21,21,99,90,1.314074935,1
370.0078122,9.972993689,10.05357554,10.77246193,10.88239424,0.181575561,0.210950527,9.773723906,9.773723906,0.071848556,0.142752381,35.29868567,36.73132787,11.43050445,21,21,99,90,1.314074935,1
371.0078122,9.970901788,10.04925656,10.78812046,10.89649831,0.183840183,0.205263468,9.770742944,9.770742944,0.071861898,0.142776691,35.29422133,36.7314005,11.43050445,21,21,99,90,1.314074935,1
372.0078122,9.968650288,10.04708349,10.80719922,10.91701434,0.187237759,0.200547916,9.774657835,9.774657835,0.071877378,0.142798239,35.28961708,36.73136975,11.49011741,21,21,99,90,1.314074935,1
373.0078122,9.967590641,10.05305041,10.80437902,10.9404513,0.191334797,0.196892119,9.782103403,9.782103403,0.071892515,0.142825906,35.28466958,36.73108847,11.49011741,21,21,99,90,1.314074935,1
374.0078122,9.968423241,10.06600298,10.78291532,10.96656591,0.194055823,0.194454792,9.79018143,9.79018143,0.07191322,0.142849051,35.27953978,36.73047931,11.49011741,21,21,99,90,1.314074935,1
375.0078122,9.969912237,10.07707453,10.76348456,10.98333822,0.193580342,0.193547067,9.797863835,9.797863835,0.071935676,0.142874758,35.27426963,36.7297039,11.49011741,21,21,99,90,1.314074935,1
376.0078122,9.970652537,10.07811434,10.74737689,10.97027716,0.189995003,0.194443635,9.803369328,9.803369328,0.071961394,0.142899304,35.26875835,36.72862216,11.5613356,21,21,99,90,1.314074935,1
377.0078122,9.970425569,10.06993497,10.71760507,10.92896018,0.185005156,0.197044492,9.803864746,9.803864746,0.071985117,0.142923243,35.26306546,36.72749993,11.5613356,21,21,99,90,1.314074935,1
378.0078122,9.969232442,10.05967808,10.67535661,10.88769869,0.180378497,0.200708367,9.799682473,9.799682473,0.072008765,0.142948857,35.25732507,36.72628105,11.5613356,21,21,99,90,1.314074935,1
379.0078122,9.967263778,10.0526353,10.64689917,10.86910032,0.176929029,0.204468822,9.793788585,9.793788585,0.072034544,0.142980487,35.25132818,36.72466569,11.64021026,21,21,99,90,1.314074935,1
380.0078122,9.965507943,10.04936411,10.64972924,10.86818873,0.174554973,0.207597072,9.786291886,9.786291886,0.072060297,0.143005131,35.24521546,36.72286906,11.64021026,21,21,99,90,1.314074935,1
381.0078122,9.964613509,10.04832392,10.6724446,10.86708113,0.172615894,0.210110158,9.77547476,9.77547476,0.07208677,0.143031425,35.23902792,36.72096798,11.64021026,21,21,99,90,1.314074935,1
382.0078122,9.964314522,10.04841739,10.69560394,10.862272,0.170336177,0.212690837,9.763293828,9.763293828,0.072113163,0.143061816,35.23272309,36.71888956,11.64021026,21,21,99,90,1.314074935,1
383.0078122,9.964387331,10.04870786,10.71463068,10.86319718,0.167479734,0.215993521,9.755819705,9.755819705,0.072139419,0.143089195,35.22629806,36.71651401,11.7209631,21,21,99,89,1.314074935,1
384.0078122,9.964706855,10.04792179,10.7354323,10.86706996,0.165043795,0.219919209,9.758284707,9.758284707,0.072164587,0.143115384,35.21974965,36.7141133,11.7209631,21,21,99,89,1.314074935,1
385.0078122,9.965016264,10.04592113,10.76344107,10.86005896,0.165113678,0.22348858,9.769507651,9.769507651,0.07218922,0.143139517,35.21308313,36.71138309,11.79613618,21,21,99,89,1.314074935,1
386.0078122,9.964961005,10.04440798,10.79632513,10.84950552,0.169528467,0.225393732,9.782430827,9.782430827,0.072208058,0.14315918,35.20628424,36.70851571,11.79613618,21,21,99,89,1.314074935,1
387.0078122,9.963942589,10.04521077,10.81647196,10.86230458,0.178136507,0.224867215,9.790703612,9.790703612,0.072228047,0.143181441,35.19953887,36.70540836,11.79613618,21,21,99,89,1.314074935,1
388.0078122,9.962074871,10.04908495,10.80141244,10.89942448,0.188347751,0.222093964,9.792459541,9.792459541,0.072248568,0.143205756,35.19280574,36.70201057,11.85711688,22,21,99,89,1.314074935,1
389.0078122,9.960565177,10.05529624,10.75181365,10.93110362,0.196773863,0.217987941,9.790975764,9.790975764,0.07232718,0.143229543,35.18594771,36.69846401,11.85711688,22,21,99,89,1.314074935,1
390.0078122,9.960148329,10.06112902,10.69787889,10.94218165,0.201495517,0.213764744,9.793378561,9.793378561,0.072362096,0.143250407,35.17897937,36.69474628,11.85711688,22,21,99,89,1.314074935,1
391.0078122,9.960260679,10.0637199,10.66816942,10.94835322,0.202610395,0.210557158,9.802177771,9.802177771,0.072387302,0.143272172,35.17205271,36.6908735,11.89499402,22,21,98,89,1.314074935,1
392.0078122,9.959895262,10.0620055,10.65874623,10.97176735,0.200930298,0.2089788,9.809793658,9.809793658,0.072409619,0.143288137,35.16515525,36.68679778,11.89499402,22,21,98,89,1.314074935,1
393.0078122,9.958891183,10.05617007,10.64720421,11.01368634,0.196986233,0.208859761,9.807405895,9.807405895,0.072425932,0.143305221,35.15822191,36.68259547,11.90162224,22,21,98,89,1.314074935,1
394.0078122,9.958155297,10.04762116,10.6263008,11.04352571,0.191495537,0.209516452,9.794784526,9.794784526,0.072440567,0.143317653,35.15121111,36.67819123,11.90162224,22,21,98,89,1.314074935,1
395.0078122,9.958338886,10.03919541,10.60021988,11.02424259,0.186019731,0.210291824,9.779160188,9.779160188,0.072452227,0.143338214,35.1445471,36.67367456,11.90162224,22,21,98,89,1.314074935,1
396.0078122,9.958991869,10.03396673,10.57067008,10.95676732,0.182464767,0.210751391,9.769341659,9.769341659,0.07246192,0.143352023,35.13781315,36.66902647,11.87071817,22,21,98,88,1.314074935,1
397.0078122,9.959348879,10.0339778,10.54628013,10.87957226,0.182006388,0.210536266,9.771698859,9.771698859,0.072471487,0.143367544,35.13102786,36.66428577,11.87071817,22,21,98,88,1.314074935,1
398.0078122,9.95943418,10.03912217,10.53767042,10.82486111,0.184792324,0.209448819,9.786556787,9.786556787,0.072481224,0.143377625,35.12424726,36.65943731,11.87071817,22,21,98,88,1.314074935,1
399.0078122,9.9596005,10.04662834,10.53970804,10.79750444,0.190410223,0.207875179,9.805703714,9.805703714,0.072485378,0.143387029,35.11750082,36.65443691,11.79879738,22,21,98,88,1.314074935,1
400.0078122,9.95934705,10.05229346,10.53874652,10.78878988,0.197922867,0.206842357,9.817515165,9.817515165,0.072490307,0.143396309,35.11095799,36.64935543,11.79879738,22,21,98,88,1.314074935,1
401.0078122,9.958473164,10.05329189,10.53042417,10.79016426,0.205298183,0.207255982,9.816820142,9.816820142,0.072497457,0.143401024,35.10462029,36.64411678,11.68578782,22,21,98,88,1.314074935,1
402.0078122,9.958035377,10.0502582,10.52134357,10.79555567,0.209665206,0.208948745,9.807213352,9.807213352,0.072494012,0.143398451,35.09820297,36.63888323,11.68578782,22,21,98,88,1.314074935,1
403.0078122,9.958572489,10.04617349,10.51875616,10.80234203,0.209055665,0.210624003,9.7943996,9.7943996,0.07249341,0.14339751,35.09196567,36.63343319,11.68578782,22,21,98,88,1.314074935,1
404.0078122,9.959555058,10.04348936,10.52164087,10.81221154,0.203908617,0.210935799,9.782123733,9.782123733,0.07249072,0.143393349,35.08576493,36.62790868,11.53521584,22,21,98,87,1.314074935,1
405.0078122,9.960492087,10.04258432,10.52497923,10.82349057,0.196516176,0.209695591,9.773160294,9.773160294,0.072491844,0.143388373,35.07963611,36.6223484,11.53521584,22,21,98,87,1.314074935,1
406.0078122,9.961354557,10.04177977,10.52690945,10.82255231,0.189111358,0.207985361,9.76790957,9.76790957,0.07248701,0.143386792,35.07355231,36.6166229,11.53521584,22,21,98,87,1.314074935,1
407.0078122,9.962276779,10.03916472,10.52563862,10.79701771,0.182686877,0.207145122,9.764487055,9.764487055,0.072478082,0.143376714,35.06760073,36.61088721,11.35393668,22,21,98,87,1.314074935,1
408.0078122,9.963061636,10.03538473,10.52177555,10.75735579,0.177299392,0.207787152,9.762981951,9.762981951,0.072472517,0.143363304,35.06177525,36.60514707,11.35393668,22,21,98,87,1.314074935,1
409.0078122,9.963463235,10.03303979,10.52433092,10.72863113,0.172957549,0.209691151,9.764542618,9.764542618,0.072467821,0.143346724,35.05594201,36.59921125,11.15145585,22,20,98,87,1.314074935,1
410.0078122,9.963364053,10.03378554,10.54189525,10.72638515,0.17010704,0.212228928,9.766700251,9.766700251,0.072457817,0.14333475,35.05010867,36.59324405,11.15145585,22,20,98,87,1.314074935,1
411.0078122,9.962533071,10.03748705,10.57117742,10.74965247,0.16942345,0.214614532,9.76572145,9.76572145,0.072447366,0.143316963,35.04442591,36.58739693,11.15145585,22,20,98,87,1.314074935,1
412.0078122,9.961226677,10.04243826,10.59910219,10.78711051,0.171130646,0.216013547,9.762596105,9.762596105,0.072434507,0.143295885,35.03871269,36.58143832,10.93894606,22,20,98,86,1.314074935,1
413.0078122,9.960325406,10.0459051,10.61069164,10.82253803,0.17449455,0.215855715,9.761481963,9.761481963,0.072418906,0.143273199,35.03317361,36.57543991,10.93894606,22,20,98,86,1.314074935,1
414.0078122,9.960260751,10.04610796,10.598471,10.83439917,0.178157891,0.214281005,9.762875847,9.762875847,0.072407098,0.143245593,35.0276354,36.56940991,10.93894606,22,20,98,86,1.314074935,1
415.0078122,9.96053623,10.04368011,10.57511335,10.80544241,0.18108266,0.212222344,9.762491082,9.762491082,0.072403257,0.143217315,35.02205325,36.56341781,10.72810019,22,20,98,86,1.314074935,1
416.0078122,9.960506772,10.04043531,10.56874872,10.74576155,0.182983306,0.211003707,9.757845516,9.757845516,0.07238948,0.14318694,35.01664496,36.55720948,10.72810019,22,20,98,86,1.314074935,1
417.0078122,9.960469973,10.03756428,10.59571126,10.69225228,0.183845516,0.211671831,9.752050347,9.752050347,0.07237975,0.143155271,35.01130611,36.55092895,10.72810019,22,20,98,86,1.314074935,1
418.0078122,9.961235799,10.03568277,10.64852384,10.67669989,0.183462465,0.214403106,9.749003285,9.749003285,0.072374294,0.143123896,35.00592937,36.54475173,10.52997338,22,20,98,86,1.314074935,1
419.0078122,9.962644539,10.03532251,10.70412881,10.69810801,0.181822459,0.218389376,9.749237391,9.749237391,0.072361698,0.143084082,35.00062428,36.53847006,10.52997338,22,20,98,86,1.314074935,1
420.0078122,9.96391615,10.03610324,10.73181496,10.73005143,0.179841437,0.222378357,9.751583983,9.751583983,0.072353339,0.143048436,34.99521206,36.53213058,10.35396023,22,20,98,85,1.314074935,1
421.0078122,9.964701104,10.03657767,10.71272927,10.7548178,0.179341756,0.225471951,9.754709754,9.754709754,0.072338784,0.14301409,34.98984078,36.52574982,10.35396023,22,20,98,85,1.314074935,1
422.0078122,9.96479828,10.0361704,10.66025554,10.77180373,0.181971885,0.227544327,9.757824032,9.757824032,0.072328169,0.142975662,34.98451202,36.5194311,10.35396023,22,20,98,85,1.314074935,1
423.0078122,9.963880025,10.03607629,10.60552689,10.77737682,0.187767629,0.229029167,9.762656537,9.762656537,0.072323506,0.142939392,34.97923125,36.5130085,10.2070294,22,19,98,85,1.314074935,1
424.0078122,9.962044565,10.03821937,10.56889705,10.76623268,0.194438675,0.230296009,9.770724939,9.770724939,0.072312571,0.142899423,34.973947,36.50649253,10.2070294,22,19,98,85,1.314074935,1
425.0078122,9.960592174,10.04386344,10.55858319,10.74360443,0.198311567,0.231064422,9.777665876,9.777665876,0.072302357,0.142857296,34.9686549,36.49992392,10.09329933,22,19,98,85,1.314074935,1
426.0078122,9.961121822,10.0511839,10.57453185,10.7184705,0.19664885,0.230364587,9.7769725,9.7769725,0.072299847,0.142817426,34.9634038,36.49354934,10.09329933,22,19,98,85,1.314074935,1
427.0078122,9.963400187,10.0552994,10.60012824,10.69597736,0.189708407,0.227336917,9.768011795,9.768011795,0.072291161,0.142770329,34.95823778,36.48714924,10.01398842,22,19,98,85,1.314074935,1
428.0078122,9.965929256,10.05413984,10.61637044,10.68333286,0.180518706,0.222291428,9.755345869,9.755345869,0.072290842,0.142726018,34.95306906,36.48076328,10.01398842,22,19,98,85,1.314074935,1
429.0078122,9.967859301,10.05136962,10.62742808,10.69373742,0.172692212,0.216944515,9.744316297,9.744316297,0.072292775,0.142684434,34.94803911,36.47434639,10.01398842,22,19,98,85,1.314074935,1
430.0078122,9.968670659,10.05061551,10.64920332,10.73585508,0.168337728,0.213450674,9.739277718,9.739277718,0.072290293,0.142644444,34.94306606,36.4678546,9.967714802,22,19,98,84,1.314074935,1
431.0078122,9.96796045,10.05132265,10.68322668,10.80188591,0.167414777,0.213031825,9.742425174,9.742425174,0.072294984,0.1426064,34.93807218,36.46133612,9.967714802,22,19,98,84,1.314074935,1
432.0078122,9.966097834,10.05137073,10.71744541,10.86533894,0.168321591,0.215282247,9.752916145,9.752916145,0.072298481,0.142569257,34.93301204,36.45478788,9.967714802,22,19,98,84,1.314074935,1
433.0078122,9.963949605,10.04972489,10.7339936,10.8900283,0.16903831,0.218578482,9.766260693,9.766260693,0.072299127,0.142527757,34.92817357,36.44823301,9.967714802,22,19,98,84,1.314074935,1
434.0078122,9.962319447,10.04671418,10.71342175,10.86033053,0.168207843,0.221209092,9.775848312,9.775848312,0.072305062,0.142490076,34.92340334,36.44167809,9.951064303,22,19,98,84,1.314074935,1
435.0078122,9.96117812,10.04294197,10.65667044,10.80468122,0.165582756,0.222336548,9.778393898,9.778393898,0.072304921,0.142447689,34.91848586,36.43529695,9.951064303,22,19,98,84,1.314074935,1
436.0078122,9.959880608,10.03843002,10.59816761,10.76534974,0.161806309,0.222110485,9.776022487,9.776022487,0.07231121,0.142403291,34.91363755,36.42888707,9.951064303,22,19,98,84,1.314074935,1
437.0078122,9.958850145,10.03407948,10.57235524,10.7553207,0.158059334,0.221112055,9.771564206,9.771564206,0.072314589,0.142368147,34.90886143,36.42240486,9.959302894,22,19,98,83,1.314074935,1
438.0078122,9.959012328,10.03161844,10.58043631,10.76375202,0.15572617,0.219863828,9.766711601,9.766711601,0.072320544,0.142326844,34.90396319,36.41592146,9.959302894,22,19,98,83,1.314074935,1
439.0078122,9.960029524,10.03119809,10.60459342,10.78061511,0.155812423,0.218784589,9.764260773,9.764260773,0.072332121,0.142288629,34.89916482,36.40938796,9.959302894,22,19,98,83,1.314074935,1
440.0078122,9.960996856,10.03186077,10.62756475,10.79728228,0.158180743,0.21824946,9.765451552,9.765451552,0.072344502,0.14224764,34.89443021,36.40268197,9.987093413,22,19,98,83,1.314074935,1
441.0078122,9.961515577,10.0330056,10.63302431,10.80097298,0.161476377,0.218395222,9.766278019,9.766278019,0.072358436,0.142218106,34.88967834,36.39605143,9.987093413,22,19,98,83,1.314074935,1
442.0078122,9.961771449,10.03390865,10.61718304,10.78475849,0.164079718,0.218824841,9.762102435,9.762102435,0.072374093,0.142186145,34.88505879,36.38940817,9.987093413,22,19,98,83,1.314074935,1
443.0078122,9.962160899,10.03401945,10.59590766,10.75607773,0.165365937,0.218703914,9.754257629,9.754257629,0.072383561,0.14215557,34.88034523,36.3827357,10.02909261,22,19,98,83,1.314074935,1
444.0078122,9.962698581,10.03370173,10.57965903,10.72846773,0.166244844,0.217334839,9.747978472,9.747978472,0.072399949,0.142128047,34.87568971,36.37598812,10.02909261,22,19,98,83,1.314074935,1
445.0078122,9.963262261,10.033846,10.56323496,10.70918691,0.168662687,0.214662661,9.746195887,9.746195887,0.072417298,0.142107512,34.87107215,36.36923428,10.02909261,22,19,98,83,1.314074935,1
446.0078122,9.963876185,10.03559433,10.55187198,10.70056799,0.174463165,0.211253485,9.74870372,9.74870372,0.072433625,0.142079435,34.86647745,36.36263545,10.08034998,22,19,98,82,1.314074935,1
447.0078122,9.964511661,10.03943681,10.56313222,10.70890821,0.184167271,0.207955763,9.754255652,9.754255652,0.072455171,0.142055238,34.86197008,36.35587824,10.08034998,22,19,98,82,1.314074935,1
448.0078122,9.965078211,10.04376779,10.59637616,10.73740565,0.196257955,0.205645082,9.760867838,9.760867838,0.072471225,0.142034724,34.8573726,36.34912623,10.13649154,22,19,98,82,1.314074935,1
449.0078122,9.965156421,10.0461301,10.62714917,10.77330832,0.207606755,0.204975188,9.766732266,9.766732266,0.072491578,0.142015115,34.85283042,36.34235483,10.13649154,22,19,98,82,1.314074935,1
450.0078122,9.964726986,10.04620466,10.63545719,10.79902653,0.215118798,0.205954443,9.771498912,9.771498912,0.072509525,0.14199741,34.84830939,36.33565372,10.13649154,22,19,98,82,1.314074935,1
451.0078122,9.964935659,10.04559261,10.62382286,10.81030554,0.217479833,0.207816576,9.774931536,9.774931536,0.072527222,0.141980959,34.84388828,36.32885211,10.19373101,22,19,98,82,1.314074935,1
452.0078122,9.966250967,10.04546139,10.60045804,10.81467558,0.215282162,0.209693482,9.775670521,9.775670521,0.072541921,0.1419629,34.83951556,36.32211161,10.19373101,22,19,98,82,1.314074935,1
453.0078122,9.967428375,10.04647824,10.56817321,10.8238658,0.20960846,0.21149632,9.772158418,9.772158418,0.072559101,0.141948715,34.83511349,36.31541889,10.24878899,22,19,98,81,1.314074935,1
454.0078122,9.967300679,10.048338,10.54769931,10.8449708,0.200914694,0.213808477,9.764159483,9.764159483,0.072575142,0.141935209,34.83080409,36.30870426,10.24878899,22,19,98,81,1.314074935,1
455.0078122,9.966041431,10.0478494,10.57034598,10.86508056,0.189733437,0.216893964,9.755124453,9.755124453,0.072594802,0.14191942,34.82643816,36.30195326,10.24878899,22,19,98,81,1.314074935,1
456.0078122,9.964851054,10.04250196,10.62782763,10.86438082,0.1778976,0.220164789,9.751801301,9.751801301,0.072613284,0.141907368,34.82214445,36.29518648,10.29880755,22,19,98,81,1.314074935,1
457.0078122,9.964706356,10.03569814,10.67450016,10.84890152,0.168128563,0.222689294,9.756675826,9.756675826,0.072627577,0.141894022,34.81775706,36.28843523,10.29880755,22,19,98,81,1.314074935,1
458.0078122,9.965379807,10.0321287,10.68134291,10.83211333,0.162217715,0.223863146,9.763202421,9.763202421,0.072641245,0.141879421,34.81343851,36.28156338,10.29880755,22,19,98,81,1.314074935,1
459.0078122,9.966346268,10.0314761,10.66150527,10.8062126,0.159890332,0.223473617,9.762826535,9.762826535,0.072649324,0.141870189,34.80937755,36.27481853,10.34132413,22,19,98,81,1.314074935,1
460.0078122,9.967484558,10.03208403,10.65047723,10.77346592,0.159348997,0.221527672,9.754273017,9.754273017,0.072654686,0.141859413,34.80512733,36.26799997,10.34132413,22,19,98,81,1.314074935,1
461.0078122,9.968262235,10.03530357,10.66589511,10.75917903,0.158690824,0.218306376,9.745306731,9.745306731,0.072660239,0.141854627,34.80078147,36.26115715,10.34132413,22,19,98,81,1.314074935,1
462.0078122,9.967993023,10.04277044,10.69431491,10.77177442,0.157051534,0.214342066,9.74610125,9.74610125,0.072668401,0.141842928,34.79641025,36.25424654,10.37432595,22,19,98,80,1.314074935,1
463.0078122,9.96700938,10.05250288,10.71848962,10.79658671,0.154854455,0.210118282,9.758914963,9.758914963,0.072675401,0.141835553,34.79219356,36.24742298,10.37432595,22,19,98,80,1.314074935,1
464.0078122,9.966250831,10.05907353,10.73225055,10.82057687,0.153132199,0.205941668,9.775656547,9.775656547,0.072682553,0.141826904,34.78792645,36.24057826,10.37432595,22,19,98,80,1.314074935,1
465.0078122,9.966086744,10.05834519,10.73202371,10.83391795,0.152654554,0.202281991,9.786758854,9.786758854,0.072680879,0.141816274,34.78372626,36.23375267,10.39636235,22,19,98,80,1.314074935,1
466.0078122,9.966476833,10.0521239,10.72021319,10.83244247,0.153728191,0.19997138,9.788667671,9.788667671,0.07268836,0.141806784,34.77945926,36.22689044,10.39636235,22,19,98,80,1.314074935,1
467.0078122,9.967628016,10.04645705,10.7062525,10.82627784,0.156701019,0.199900279,9.783429859,9.783429859,0.072695525,0.141796817,34.77526812,36.22000587,10.40666409,21,19,98,80,1.314074935,1
468.0078122,9.969221208,10.04536877,10.6898824,10.82346993,0.162097809,0.202434743,9.775598349,9.775598349,0.072691959,0.141780589,34.77098374,36.21305845,10.40666409,21,19,98,80,1.314074935,1
469.0078122,9.970066653,10.04786843,10.66013507,10.8216902,0.169781907,0.20700287,9.768974014,9.768974014,0.072686906,0.141768325,34.76672692,36.20627723,10.40666409,21,19,98,80,1.314074935,1
470.0078122,9.969931155,10.05139019,10.61876748,10.83148758,0.178132088,0.212071718,9.764766787,9.764766787,0.072682785,0.141752619,34.76271955,36.1994039,10.40521432,21,19,98,79,1.314074935,1
471.0078122,9.969855564,10.05528777,10.58970194,10.87272038,0.184576279,0.21566113,9.762261284,9.762261284,0.072674073,0.141731986,34.75860868,36.19253059,10.40521432,21,19,98,79,1.314074935,1
472.0078122,9.970432099,10.05948926,10.59280515,10.93311507,0.187127745,0.216351937,9.760079408,9.760079408,0.072666348,0.141716651,34.75450199,36.1857228,10.39273486,21,19,98,79,1.314074935,1
473.0078122,9.971681262,10.0623418,10.62032535,10.96584387,0.185346013,0.214124277,9.757713564,9.757713564,0.072657454,0.141699619,34.7502601,36.1789038,10.39273486,21,19,98,79,1.314074935,1
474.0078122,9.973347022,10.06143091,10.6578529,10.95006493,0.180181419,0.21018314,9.756215019,9.756215019,0.072645658,0.141684558,34.74609508,36.17202976,10.39273486,21,19,98,79,1.314074935,1
475.0078122,9.974462516,10.05583691,10.70344801,10.91574124,0.173442671,0.205931036,9.756512637,9.756512637,0.072627417,0.141669016,34.74200756,36.16517139,10.37058318,21,19,98,79,1.314074935,1
476.0078122,9.974223447,10.04792613,10.74849316,10.89845887,0.167273756,0.20221405,9.758015793,9.758015793,0.072608503,0.141645031,34.73783294,36.15841929,10.37058318,21,19,98,79,1.314074935,1
477.0078122,9.972953597,10.04151282,10.77465691,10.89112775,0.163424052,0.199464921,9.759314151,9.759314151,0.072592875,0.14162303,34.73352496,36.15181247,10.37058318,21,19,98,79,1.314074935,1
478.0078122,9.971757429,10.03871647,10.77604133,10.86507425,0.162464109,0.198172806,9.759554082,9.759554082,0.072565165,0.141600614,34.72935589,36.14500952,10.34058611,21,19,98,78,1.314074935,1
479.0078122,9.971190601,10.03927077,10.753947,10.82271051,0.163553262,0.198941144,9.75893003,9.75893003,0.072549229,0.141578867,34.72514164,36.13843912,10.34058611,21,19,98,78,1.314074935,1
480.0078122,9.970711029,10.04155667,10.70930981,10.80166821,0.164942276,0.201990423,9.757772346,9.757772346,0.072524135,0.141557381,34.72114494,36.13184192,10.34058611,21,19,98,78,1.314074935,1
481.0078122,9.970118464,10.04369589,10.66344938,10.82294824,0.165063128,0.206578515,9.756108827,9.756108827,0.072499144,0.141529151,34.71700261,36.12519074,10.30485299,21,19,98,78,1.314074935,1
482.0078122,9.969752119,10.04394406,10.64532524,10.85908606,0.163534192,0.210842441,9.755130913,9.755130913,0.072476847,0.141508339,34.71281921,36.11863999,10.30485299,21,19,98,78,1.314074935,1
483.0078122,9.969214253,10.0418576,10.6484796,10.873749,0.161292884,0.212540947,9.756920424,9.756920424,0.072443691,0.141480191,34.70857299,36.11204223,10.30485299,21,19,98,78,1.314074935,1
484.0078122,9.968148321,10.03994867,10.64256521,10.86819516,0.15967639,0.210570986,9.76136916,9.76136916,0.072408532,0.141451272,34.70435602,36.10561149,10.30485299,21,19,98,78,1.314074935,1
485.0078122,9.966800259,10.04113348,10.62366302,10.86733174,0.159276246,0.206036018,9.765642696,9.765642696,0.072378055,0.141422501,34.70012492,36.09920757,10.2656086,21,19,98,78,1.314074935,1
486.0078122,9.965144988,10.04494216,10.62184735,10.88106248,0.159641528,0.201615018,9.767039821,9.767039821,0.072343845,0.141389725,34.69588356,36.09267272,10.2656086,21,19,98,78,1.314074935,1
487.0078122,9.963665577,10.04902819,10.65256695,10.89495506,0.159996505,0.19961827,9.764922863,9.764922863,0.072308912,0.141354212,34.69178069,36.08617117,10.22506755,21,19,98,78,1.314074935,1
488.0078122,9.963415884,10.05177097,10.68515999,10.88963284,0.160032015,0.200486724,9.760557535,9.760557535,0.07227199,0.141322861,34.68747582,36.07979282,10.22506755,21,19,98,78,1.314074935,1
489.0078122,9.964147846,10.05225263,10.68432686,10.85795306,0.159878058,0.202933743,9.756116951,9.756116951,0.072234487,0.141289179,34.68310168,36.07345048,10.22506755,21,19,98,78,1.314074935,1
490.0078122,9.964643069,10.05037574,10.66164774,10.80677653,0.15956199,0.205293483,9.752721544,9.752721544,0.072194702,0.141248783,34.67869374,36.0672347,10.18534604,21,19,98,77,1.314074935,1
491.0078122,9.964205639,10.04651079,10.65903156,10.75778935,0.158913392,0.206729211,9.750669553,9.750669553,0.072155768,0.141208832,34.67447601,36.06103644,10.18534604,21,19,98,77,1.314074935,1
492.0078122,9.962599495,10.04064036,10.6915104,10.74321655,0.158021687,0.207355507,9.752665839,9.752665839,0.072110648,0.141166868,34.67027264,36.05489497,10.18534604,21,19,98,77,1.314074935,1
493.0078122,9.960265392,10.03366006,10.73218283,10.77922622,0.157394022,0.207576724,9.762073759,9.762073759,0.072075952,0.141130273,34.66592282,36.04878715,10.14838668,20,19,98,77,1.314074935,1
494.0078122,9.95822883,10.02843781,10.75113854,10.84341489,0.157505525,0.207564652,9.777064043,9.777064043,0.072039113,0.141093158,34.6614753,36.04272022,10.14838668,20,19,98,77,1.314074935,1
495.0078122,9.957119685,10.02773638,10.739103,10.89421802,0.158449315,0.207441894,9.791096207,9.791096207,0.072004505,0.141051179,34.65711217,36.03670124,10.14838668,20,19,98,77,1.314074935,1
496.0078122,9.957338858,10.03182772,10.70049964,10.91088065,0.160120378,0.207656918,9.799064057,9.799064057,0.071963919,0.141014985,34.6527944,36.03071458,10.11586601,20,19,98,77,1.314074935,1
497.0078122,9.958989255,10.03851972,10.65350844,10.89868045,0.162390251,0.208740619,9.799863415,9.799863415,0.07193033,0.140976532,34.64830634,36.02476489,10.11586601,20,19,98,77,1.314074935,1
498.0078122,9.961215621,10.04464927,10.62608378,10.86132526,0.164838899,0.210650597,9.794406889,9.794406889,0.071894969,0.140937556,34.64400334,36.01875028,10.11586601,20,19,98,77,1.314074935,1
499.0078122,9.962950876,10.0476247,10.62866026,10.80003084,0.16661247,0.21265882,9.784824055,9.784824055,0.07185521,0.140899887,34.63970214,36.01277122,10.08906503,20,19,98,77,1.314074935,1
500.0078122,9.963457267,10.0460682,10.63751101,10.73492767,0.167067066,0.213957091,9.774332115,9.774332115,0.071818121,0.140862301,34.63545913,36.00700772,10.08906503,20,19,98,77,1.314074935,1
501.0078122,9.96234042,10.04005707,10.62047834,10.69592255,0.166693664,0.214196676,9.765384558,9.765384558,0.071774028,0.140816249,34.63102602,36.00117567,10.08906503,20,19,98,77,1.314074935,1
502.0078122,9.960606267,10.03254542,10.5784329,10.69875927,0.167129882,0.213499406,9.759269098,9.759269098,0.071734709,0.140768923,34.62668133,35.99547264,10.08906503,20,19,98,77,1.314074935,1
503.0078122,9.96003659,10.02853077,10.54202421,10.74207297,0.169949245,0.212246345,9.75792202,9.75792202,0.07169996,0.140730036,34.62237072,35.98987698,10.06870725,20,19,98,77,1.314074935,1
504.0078122,9.961048301,10.0307431,10.52763785,10.81400285,0.175313501,0.210941111,9.762681846,9.762681846,0.071661322,0.140687534,34.61822795,35.98421904,10.06870725,20,19,98,77,1.314074935,1
505.0078122,9.962944972,10.03781008,10.52521882,10.89311736,0.181685371,0.210052585,9.770458446,9.770458446,0.071626296,0.140649863,34.61387622,35.97865283,10.05479547,20,19,98,76,1.314074935,1
506.0078122,9.965032455,10.0459956,10.52515088,10.94746945,0.186732114,0.209707295,9.775905002,9.775905002,0.07159468,0.140611694,34.60963425,35.9731206,10.05479547,20,19,98,76,1.314074935,1
507.0078122,9.966430869,10.05146587,10.53070008,10.94777674,0.188392644,0.209512127,9.778430959,9.778430959,0.071553969,0.140575608,34.6054096,35.96764734,10.05479547,20,19,98,76,1.314074935,1
508.0078122,9.966638296,10.05214355,10.54955558,10.89643367,0.185486444,0.208774546,9.781561862,9.781561862,0.071525664,0.140540362,34.60111251,35.9622236,10.04649752,20,19,98,76,1.314074935,1
509.0078122,9.966394774,10.04869025,10.58938372,10.83054418,0.178160321,0.206960579,9.785214037,9.785214037,0.071495761,0.140503095,34.59698394,35.95682459,10.04649752,20,19,98,76,1.314074935,1
510.0078122,9.966761906,10.04406149,10.65236565,10.7850758,0.168191264,0.204003808,9.785509817,9.785509817,0.071464341,0.140457086,34.59287396,35.95143329,10.04649752,20,19,98,76,1.314074935,1
511.0078122,9.967836669,10.04131649,10.72439018,10.76664203,0.158413806,0.200334989,9.781768339,9.781768339,0.071438416,0.140417201,34.58870537,35.94602564,10.04213471,20,19,98,76,1.314074935,1
512.0078122,9.968731095,10.04138784,10.78280356,10.76451468,0.15127918,0.196743646,9.776804609,9.776804609,0.07141251,0.140376443,34.58447155,35.94069895,10.04213471,20,19,98,76,1.314074935,1
513.0078122,9.968780161,10.04273149,10.8145899,10.77090882,0.147779794,0.194134061,9.771503879,9.771503879,0.071391108,0.140336213,34.58040885,35.93542631,10.04213471,20,19,98,76,1.314074935,1
514.0078122,9.968272279,10.04248276,10.81765415,10.78527068,0.147456654,0.193191789,9.76448187,9.76448187,0.071366597,0.140302245,34.57642691,35.93015957,10.03931057,20,18,98,76,1.314074935,1
515.0078122,9.967407587,10.03916885,10.79826997,10.80885033,0.148894823,0.194083551,9.75677058,9.75677058,0.071342134,0.140265661,34.57241583,35.92485159,10.03931057,20,18,98,76,1.314074935,1
516.0078122,9.965999084,10.03474925,10.77620375,10.83833185,0.150198733,0.196380032,9.752746536,9.752746536,0.071319316,0.140228215,34.56838272,35.91963097,10.03931057,20,18,98,76,1.314074935,1
517.0078122,9.964578872,10.03225495,10.78303462,10.86528081,0.149764715,0.199293918,9.75494356,9.75494356,0.071294644,0.140192099,34.56451574,35.91427254,10.03518786,20,18,98,76,1.314074935,1
518.0078122,9.964050727,10.03183798,10.83745937,10.88619692,0.147308134,0.202008694,9.761209265,9.761209265,0.071266713,0.140155868,34.56078983,35.90908168,10.03518786,20,18,98,76,1.314074935,1
519.0078122,9.964787897,10.03142677,10.90997401,10.90233272,0.144221424,0.203829797,9.767129718,9.767129718,0.071248312,0.140118032,34.55692239,35.90373891,10.03518786,20,18,98,76,1.314074935,1
520.0078122,9.966529596,10.03073583,10.93120279,10.90885177,0.142588826,0.204123769,9.76892227,9.76892227,0.071229142,0.140083029,34.55305949,35.89851091,10.02688421,20,18,98,76,1.314074935,1
521.0078122,9.968011994,10.03203034,10.86144268,10.90424777,0.143616306,0.202499579,9.766730994,9.766730994,0.071216846,0.140047021,34.54942216,35.89335894,10.02688421,20,18,98,76,1.314074935,1
522.0078122,9.967979318,10.03699198,10.74198006,10.900786,0.146833605,0.199353981,9.765926222,9.765926222,0.071201362,0.140005865,34.54584166,35.8882849,10.02688421,20,18,98,76,1.314074935,1
523.0078122,9.967143633,10.04376147,10.65208276,10.90590707,0.150564304,0.196030008,9.770813856,9.770813856,0.071185695,0.139967092,34.54218559,35.88314806,10.01192415,20,18,98,76,1.314074935,1
524.0078122,9.96715587,10.04803731,10.63006664,10.9095289,0.153018077,0.193962087,9.777528836,9.777528836,0.071176126,0.13992988,34.53858295,35.87799408,10.01192415,20,18,98,76,1.314074935,1
525.0078122,9.967979007,10.04748733,10.66176637,10.89859175,0.153159508,0.193542484,9.779187481,9.779187481,0.071160395,0.139896657,34.53502859,35.87285924,10.01192415,20,18,98,76,1.314074935,1
526.0078122,9.968283066,10.04340609,10.71435407,10.87065954,0.151043182,0.194025218,9.776628684,9.776628684,0.071143998,0.139860303,34.53170245,35.86774012,9.9886649,20,18,98,76,1.314074935,1
527.0078122,9.967574562,10.03850587,10.75246609,10.83468363,0.14767515,0.194555107,9.775624818,9.775624818,0.07113146,0.139828062,34.52827871,35.86279621,9.9886649,20,18,98,76,1.314074935,1
528.0078122,9.966471996,10.03516775,10.75302493,10.80177696,0.144516607,0.195099178,9.776097751,9.776097751,0.071120422,0.139791266,34.5250271,35.85774378,9.9886649,20,18,98,76,1.314074935,1
529.0078122,9.965805437,10.03518361,10.72477871,10.77680661,0.142837509,0.196331182,9.77487744,9.77487744,0.071113794,0.139753871,34.52178795,35.85248297,9.95661132,20,18,98,75,1.314074935,1
530.0078122,9.965824577,10.03903515,10.69046756,10.76199175,0.143185514,0.198718216,9.774596977,9.774596977,0.071104479,0.139715917,34.51840707,35.84745733,9.95661132,20,18,98,75,1.314074935,1
531.0078122,9.966406045,10.04486953,10.65457543,10.75670608,0.145144412,0.201760203,9.777691495,9.777691495,0.071096562,0.139676997,34.51499228,35.84240241,9.95661132,20,18,98,75,1.314074935,1
532.0078122,9.967585738,10.04897045,10.61456551,10.75242503,0.147473596,0.204069437,9.777419556,9.777419556,0.071091641,0.139637034,34.51169169,35.83728835,9.916552173,20,18,98,75,1.314074935,1
533.0078122,9.968606847,10.04855786,10.58585403,10.7425979,0.148737342,0.204367041,9.766734271,9.766734271,0.071086205,0.139592562,34.50849625,35.83220267,9.916552173,20,18,98,75,1.314074935,1
534.0078122,9.968360636,10.04469295,10.59019586,10.73459682,0.148275622,0.202600502,9.749537552,9.749537552,0.071073476,0.139539333,34.50518534,35.827256,9.916552173,20,18,98,75,1.314074935,1
535.0078122,9.967791649,10.04089995,10.62969303,10.73785845,0.146814975,0.200136622,9.734678359,9.734678359,0.071063767,0.139489512,34.50177301,35.8221365,9.870482335,19,18,98,75,1.314074935,1
536.0078122,9.968844019,10.03860475,10.68233398,10.74400577,0.145914874,0.198699406,9.726184252,9.726184252,0.071058255,0.139442398,34.49856651,35.81703132,9.870482335,19,18,98,75,1.314074935,1
537.0078122,9.971096338,10.03621175,10.71981441,10.73877052,0.146503391,0.199002928,9.723784735,9.723784735,0.071048447,0.139396797,34.49555144,35.81197533,9.870482335,19,18,98,75,1.314074935,1
538.0078122,9.972215827,10.03311857,10.73052746,10.73116436,0.147988098,0.200431552,9.727041071,9.727041071,0.071044243,0.139346326,34.49232246,35.80682553,9.821316399,19,18,98,75,1.314074935,1
539.0078122,9.970977858,10.03133737,10.72362436,10.7385029,0.14898745,0.201970572,9.735039847,9.735039847,0.07104126,0.139297727,34.48912939,35.80159573,9.821316399,19,18,98,75,1.314074935,1
540.0078122,9.968394171,10.03154099,10.71006679,10.75001188,0.148847374,0.203210176,9.744891221,9.744891221,0.071031222,0.139250145,34.48572273,35.79652115,9.821316399,19,18,98,75,1.314074935,1
541.0078122,9.96640158,10.03148915,10.69508292,10.74924983,0.148206951,0.20438535,9.75430622,9.75430622,0.07102928,0.139202033,34.48256801,35.79151101,9.772440529,19,18,98,75,1.314074935,1
542.0078122,9.965543362,10.02988271,10.69007616,10.74879571,0.148156752,0.205702664,9.763387713,9.763387713,0.071025632,0.139151729,34.47947491,35.78644859,9.772440529,19,18,98,75,1.314074935,1
543.0078122,9.964754598,10.02821177,10.70381857,10.76148008,0.14916861,0.206833327,9.771205798,9.771205798,0.071018909,0.13909696,34.47632274,35.78143291,9.772440529,19,18,98,75,1.314074935,1
544.0078122,9.963890342,10.02883364,10.72027429,10.78030684,0.150875778,0.206984393,9.774221456,9.774221456,0.071017486,0.139047465,34.47322924,35.77624904,9.772440529,19,18,98,75,1.314074935,1
545.0078122,9.964073172,10.03290866,10.71437635,10.80664318,0.152516105,0.205377112,9.770408169,9.770408169,0.071013149,0.138998891,34.47013386,35.77111408,9.727182863,19,18,98,75,1.314074935,1
546.0078122,9.965204747,10.03869491,10.68734058,10.84288727,0.153386085,0.201832304,9.762183792,9.762183792,0.071011935,0.138945494,34.46703994,35.76613804,9.727182863,19,18,98,75,1.314074935,1
547.0078122,9.966099123,10.04250964,10.66304209,10.86421227,0.153052424,0.197057373,9.75473873,9.75473873,0.071010944,0.138901711,34.46392842,35.76114728,9.727182863,19,18,98,75,1.314074935,1
548.0078122,9.966384344,10.04252561,10.6585656,10.84984495,0.151472044,0.192386371,9.751959181,9.751959181,0.071003113,0.138849044,34.46083467,35.7560966,9.688301344,19,18,98,75,1.314074935,1
549.0078122,9.965996031,10.03989905,10.67374602,10.81722935,0.149126223,0.18914897,9.753074052,9.753074052,0.070998078,0.138793451,34.45781564,35.75105539,9.688301344,19,18,98,75,1.314074935,1
550.0078122,9.964824777,10.03680573,10.69944178,10.79372165,0.147044294,0.188133797,9.754074473,9.754074473,0.070997212,0.138743275,34.45469834,35.74602937,9.688301344,19,18,98,75,1.314074935,1
551.0078122,9.963602589,10.03454253,10.72411123,10.7849027,0.146460067,0.189382667,9.753118117,9.753118117,0.070990804,0.138683947,34.45158106,35.74100163,9.657587007,19,18,98,75,1.314074935,1
552.0078122,9.962911625,10.03300735,10.73658314,10.78358275,0.148093953,0.192188645,9.752499717,9.752499717,0.070987291,0.138626879,34.44835061,35.736032,9.657587007,19,18,98,75,1.314074935,1
553.0078122,9.962497464,10.03234959,10.73151103,10.78940434,0.151571899,0.195233131,9.7534479,9.7534479,0.070985424,0.138571315,34.44519401,35.7311474,9.635659512,19,18,98,75,1.314074935,1
554.0078122,9.962442292,10.03340858,10.70842171,10.80928731,0.155610314,0.197054478,9.752844289,9.752844289,0.070982968,0.138514635,34.44205618,35.72629052,9.635659512,19,18,98,75,1.314074935,1
555.0078122,9.962846294,10.03542116,10.66731593,10.84127595,0.158954569,0.196822281,9.748756101,9.748756101,0.070978509,0.138464265,34.43898531,35.72146766,9.635659512,19,18,98,75,1.314074935,1
556.0078122,9.963414849,10.03670817,10.61833734,10.86696078,0.161299093,0.194885942,9.74433267,9.74433267,0.070976474,0.138415907,34.43584728,35.71664001,9.621993117,19,18,98,75,1.314074935,1
557.0078122,9.964346998,10.03720517,10.5851622,10.86879128,0.1634381,0.192594425,9.744296897,9.744296897,0.070970887,0.138365466,34.43291135,35.7117935,9.621993117,19,18,98,75,1.314074935,1
558.0078122,9.965709642,10.0371912,10.58544436,10.85497681,0.166524165,0.191563773,9.75107456,9.75107456,0.070970448,0.138319072,34.429733,35.70709189,9.621993117,19,18,98,75,1.314074935,1
559.0078122,9.966850308,10.03599109,10.61416602,10.85199425,0.170984054,0.192913905,9.762229213,9.762229213,0.070969372,0.138270079,34.42653849,35.70240023,9.621993117,19,18,98,75,1.314074935,1
560.0078122,9.967202391,10.03393554,10.64282262,10.86584624,0.175805024,0.196939465,9.771215277,9.771215277,0.070973421,0.13821488,34.42338927,35.69776973,9.615162574,19,18,98,75,1.314074935,1
561.0078122,9.966324646,10.03345488,10.6376168,10.87412284,0.178809575,0.203229708,9.7731152,9.7731152,0.070978394,0.138167833,34.42038303,35.69339068,9.615162574,19,18,98,75,1.314074935,1
562.0078122,9.964350219,10.03659608,10.59482049,10.8577718,0.177898684,0.210916021,9.768461377,9.768461377,0.07098404,0.138122769,34.41737252,35.68879338,9.615162574,19,18,98,75,1.314074935,1
563.0078122,9.962894004,10.04184914,10.55232638,10.81573405,0.172485508,0.218717441,9.761986352,9.761986352,0.070992002,0.138078462,34.41434824,35.68398623,9.613250017,19,18,98,75,1.314074935,1
564.0078122,9.963378899,10.04519721,10.55448252,10.76042418,0.164083618,0.224910245,9.759807682,9.759807682,0.071000154,0.138029962,34.41124713,35.67947533,9.613250017,19,18,98,75,1.314074935,1
565.0078122,9.965304376,10.04454963,10.61545896,10.71568255,0.155582704,0.227731003,9.765636393,9.765636393,0.07100619,0.137985349,34.40829638,35.67490011,9.613250017,19,18,98,75,1.314074935,1
566.0078122,9.967599634,10.04158819,10.71360834,10.6989105,0.149801109,0.226257392,9.776105565,9.776105565,0.07101158,0.137931729,34.40545893,35.67035925,9.614317164,19,18,98,75,1.314074935,1
567.0078122,9.969716873,10.03917246,10.8040837,10.70327975,0.148437153,0.220991466,9.782913118,9.782913118,0.071021909,0.137883069,34.40251659,35.66583453,9.614317164,19,18,98,75,1.314074935,1
568.0078122,9.971309466,10.03833906,10.84255079,10.71496633,0.15188522,0.213563832,9.78398581,9.78398581,0.071027006,0.137835012,34.39962921,35.66136177,9.614317164,19,18,98,75,1.314074935,1
569.0078122,9.972790937,10.039418,10.81353742,10.73299719,0.159389961,0.205972825,9.78820191,9.78820191,0.071036076,0.137789021,34.39676242,35.65693687,9.61683191,19,18,98,76,1.314074935,1
570.0078122,9.974854088,10.04398112,10.73960995,10.76257617,0.169080187,0.199938117,9.803540957,9.803540957,0.071042771,0.137744747,34.39387542,35.65259294,9.61683191,19,18,98,76,1.314074935,1
571.0078122,9.976425932,10.05228897,10.66218233,10.80833112,0.17804291,0.196498482,9.822697492,9.822697492,0.07105406,0.137705534,34.39108659,35.64830243,9.61683191,19,18,98,76,1.314074935,1
572.0078122,9.975334335,10.06089054,10.61646828,10.86823612,0.183186402,0.195592072,9.828579245,9.828579245,0.071061769,0.137660551,34.38831317,35.64392166,9.619949714,19,18,98,76,1.314074935,1
573.0078122,9.971323383,10.06482207,10.61543889,10.91791841,0.18269291,0.196089327,9.814856137,9.814856137,0.071068446,0.137615114,34.38559008,35.63955373,9.619949714,19,18,98,76,1.314074935,1
574.0078122,9.966826421,10.06177352,10.64135508,10.92501666,0.177142106,0.196484829,9.790923033,9.790923033,0.071080868,0.137569336,34.38280615,35.63520251,9.619949714,19,18,98,76,1.314074935,1
575.0078122,9.964341397,10.05400948,10.65832303,10.89192399,0.169327656,0.195804462,9.769451405,9.769451405,0.071093212,0.137523288,34.3801411,35.63094275,9.623586682,19,18,98,76,1.314074935,1
576.0078122,9.963847445,10.04579906,10.64407803,10.85267981,0.162781092,0.194026691,9.759376123,9.759376123,0.071105514,0.137473742,34.37750328,35.62666871,9.623586682,19,18,98,76,1.314074935,1
577.0078122,9.96391434,10.04031882,10.60282602,10.82906839,0.160020902,0.191868217,9.764230755,9.764230755,0.071121754,0.137430285,34.37481142,35.62252439,9.623586682,19,18,98,76,1.314074935,1
578.0078122,9.964222275,10.03925431,10.55185205,10.82359434,0.161557344,0.19031207,9.779765304,9.779765304,0.071137183,0.137378616,34.37232827,35.61837631,9.628274573,20,18,98,76,1.314074935,1
579.0078122,9.965077704,10.042707,10.5080932,10.84038665,0.165946248,0.190164085,9.796911415,9.796911415,0.071152141,0.137327026,34.36978474,35.61428586,9.628274573,20,18,98,76,1.314074935,1
580.0078122,9.965925442,10.04870491,10.48354644,10.88268592,0.17063225,0.191647502,9.808498315,9.808498315,0.071175974,0.137275704,34.36736052,35.61019475,9.628274573,20,18,98,76,1.314074935,1
581.0078122,9.96623258,10.05400634,10.4815495,10.93824864,0.173174463,0.194166656,9.811121769,9.811121769,0.071184738,0.137226536,34.36485789,35.60600086,9.6348447,20,18,98,76,1.314074935,1
582.0078122,9.966291427,10.05620324,10.498254,10.97842847,0.172365547,0.196573759,9.806128992,9.806128992,0.071196335,0.13717702,34.36240434,35.60174951,9.6348447,20,18,98,76,1.314074935,1
583.0078122,9.96621282,10.05519706,10.5321536,10.97508289,0.168726599,0.197916122,9.801339471,9.801339471,0.071207666,0.137132169,34.35999333,35.59756766,9.6348447,20,18,98,76,1.314074935,1
584.0078122,9.966123462,10.05314863,10.57730407,10.92415755,0.164080748,0.198051258,9.80127751,9.80127751,0.071210194,0.137073611,34.35773926,35.5933348,9.64403265,20,18,98,76,1.314074935,1
585.0078122,9.966854566,10.05269198,10.61409644,10.85248915,0.160525866,0.197557517,9.799073759,9.799073759,0.071217938,0.137019828,34.35541284,35.5892524,9.64403265,20,18,98,76,1.314074935,1
586.0078122,9.968383653,10.05435498,10.63132451,10.80492984,0.159359735,0.197119366,9.789446113,9.789446113,0.071228985,0.1369684,34.35296672,35.58514415,9.64403265,20,18,98,76,1.314074935,1
587.0078122,9.969468432,10.05697049,10.63613812,10.82005118,0.160508684,0.196973156,9.778539743,9.778539743,0.071236269,0.136913658,34.3506108,35.58087865,9.656116542,20,18,98,76,1.314074935,1
588.0078122,9.969375704,10.05960332,10.6300607,10.90248733,0.162563415,0.196803747,9.773112084,9.773112084,0.0712467,0.136860371,34.34828234,35.57669988,9.656116542,20,18,98,76,1.314074935,1
589.0078122,9.968012459,10.06023059,10.60792696,11.01062326,0.163450206,0.19601485,9.77159735,9.77159735,0.071249116,0.136812545,34.34598224,35.5726426,9.656116542,20,18,98,76,1.314074935,1
590.0078122,9.965894012,10.05653728,10.57963431,11.07893632,0.161662175,0.194150173,9.768812863,9.768812863,0.071253473,0.136758854,34.34377249,35.56846756,9.670691885,20,18,98,76,1.314074935,1
591.0078122,9.964560217,10.05031744,10.5633195,11.07155267,0.157388594,0.191302479,9.762800824,9.762800824,0.071258327,0.136712185,34.34159238,35.56432671,9.670691885,20,18,98,76,1.314074935,1
592.0078122,9.965345302,10.04700948,10.56359441,11.0187932,0.152509613,0.188314649,9.756054807,9.756054807,0.071255078,0.136667268,34.33943563,35.56020533,9.670691885,20,18,98,76,1.314074935,1
593.0078122,9.96822523,10.04974425,10.57165832,10.98274047,0.149251855,0.186554266,9.753245968,9.753245968,0.071257734,0.136622212,34.3373333,35.55614594,9.686648559,20,18,98,76,1.314074935,1
594.0078122,9.972019209,10.05506393,10.5814622,10.98579463,0.148622867,0.187242691,9.758387045,9.758387045,0.071253291,0.136581373,34.33517236,35.55194247,9.686648559,20,18,98,76,1.314074935,1
595.0078122,9.974769634,10.05632388,10.59685227,10.99177161,0.149927091,0.190635721,9.770487,9.770487,0.071250135,0.136535344,34.33318535,35.54789776,9.686648559,20,18,98,76,1.314074935,1
596.0078122,9.975059919,10.05172736,10.61600822,10.95639723,0.151578308,0.195585018,9.78209752,9.78209752,0.071233929,0.13649269,34.33110361,35.54384584,9.686648559,20,18,98,76,1.314074935,1
597.0078122,9.97336001,10.04550655,10.62413319,10.88267878,0.152398483,0.200009227,9.787603847,9.787603847,0.071218164,0.136442332,34.32885646,35.53968648,9.702360151,20,18,98,76,1.314074935,1
598.0078122,9.971202653,10.04152829,10.61379064,10.81421201,0.152359214,0.202102894,9.789920473,9.789920473,0.071206134,0.136397751,34.32682268,35.53555069,9.702360151,20,18,98,76,1.314074935,1
599.0078122,9.970088976,10.04027479,10.59290593,10.78697204,0.152276682,0.201453368,9.792720191,9.792720191,0.07118671,0.136351455,34.32484563,35.53151601,9.702360151,20,18,98,76,1.314074935,1
600.0078122,9.970333357,10.04055295,10.57039382,10.81111255,0.152782438,0.199006598,9.794226847,9.794226847,0.071172583,0.136300994,34.3230221,35.5273346,9.716038469,20,18,98,76,1.314074935,1
601.0078122,9.969989482,10.04058791,10.55309909,10.87501416,0.153607704,0.196069532,9.794254815,9.794254815,0.071155218,0.136257931,34.32097576,35.5232209,9.716038469,20,18,98,76,1.314074935,1
602.0078122,9.967464945,10.03943994,10.55138366,10.94086889,0.153857777,0.193466948,9.796089934,9.796089934,0.071134954,0.136213609,34.31892184,35.51917785,9.716038469,20,18,98,76,1.314074935,1
603.0078122,9.964261471,10.03859241,10.57438573,10.96445336,0.152842885,0.191496922,9.798924233,9.798924233,0.071114374,0.136178014,34.3168943,35.51498206,9.726162234,20,18,98,76,1.314074935,1
604.0078122,9.96251545,10.03992068,10.61969701,10.93932798,0.150524576,0.190235262,9.798884463,9.798884463,0.071087658,0.136136981,34.31480366,35.5108795,9.726162234,20,18,98,76,1.314074935,1
605.0078122,9.962480562,10.04292447,10.66709113,10.90237549,0.147310004,0.189611294,9.795268676,9.795268676,0.071060279,0.136099041,34.31277479,35.50684237,9.731870458,20,18,98,76,1.314074935,1
606.0078122,9.963712406,10.04572778,10.69067412,10.89029628,0.143738724,0.189365999,9.789383049,9.789383049,0.071031565,0.136068748,34.31069422,35.5026695,9.731870458,20,18,98,76,1.314074935,1
607.0078122,9.965958914,10.04684212,10.68663529,10.9038974,0.140485387,0.189220437,9.782541112,9.782541112,0.071004674,0.136034971,34.30862682,35.49855227,9.731870458,20,18,98,76,1.314074935,1
608.0078122,9.968803318,10.04581798,10.67957451,10.92112709,0.138437819,0.189133614,9.776755511,9.776755511,0.070976288,0.136003039,34.30663494,35.4944636,9.733221758,20,18,98,76,1.314074935,1
609.0078122,9.971403831,10.04434086,10.69279541,10.93242016,0.138498803,0.189271983,9.773465757,9.773465757,0.070946083,0.135975585,34.30459707,35.49037772,9.733221758,20,18,98,76,1.314074935,1
610.0078122,9.972617211,10.04546529,10.71811332,10.94326847,0.141225584,0.189644759,9.771855128,9.771855128,0.070906751,0.135949432,34.30262997,35.48629925,9.733221758,20,18,98,76,1.314074935,1
611.0078122,9.972005507,10.0496472,10.72578618,10.95421896,0.146497801,0.18984655,9.770060532,9.770060532,0.070872663,0.135927039,34.30067204,35.48225518,9.733221758,20,18,98,76,1.314074935,1
612.0078122,9.970177998,10.05310294,10.70251748,10.95963902,0.153147491,0.189347889,9.767224624,9.767224624,0.07083694,0.135905271,34.29872531,35.4783629,9.731256366,20,18,98,76,1.314074935,1
613.0078122,9.968141763,10.05242358,10.66815028,10.95709363,0.158825272,0.188089544,9.763129082,9.763129082,0.070794255,0.135880204,34.29691728,35.47430123,9.731256366,20,18,98,76,1.314074935,1
614.0078122,9.967026034,10.04826651,10.65191225,10.94664498,0.160883363,0.186605972,9.75766915,9.75766915,0.0707563,0.135864936,34.29511003,35.47018807,9.731256366,20,18,98,76,1.314074935,1
615.0078122,9.967176683,10.04258343,10.65850354,10.9285783,0.158226168,0.185449342,9.751626879,9.751626879,0.070715011,0.135839828,34.29318141,35.46616567,9.72784662,20,18,98,76,1.314074935,1
616.0078122,9.967351363,10.03653689,10.66641663,10.90600094,0.152424272,0.184656012,9.747165605,9.747165605,0.070671599,0.135811564,34.29137758,35.46205333,9.72784662,20,18,98,76,1.314074935,1
617.0078122,9.966539261,10.03255485,10.65806637,10.8851568,0.146622908,0.18390544,9.747423036,9.747423036,0.070630322,0.135787962,34.28938309,35.45810165,9.72784662,20,18,98,76,1.314074935,1
618.0078122,9.965573347,10.03386547,10.64195127,10.87350613,0.143218613,0.183031239,9.754958961,9.754958961,0.070585413,0.135762309,34.28752928,35.45415004,9.725370377,20,18,98,76,1.314074935,1
619.0078122,9.965529475,10.04025998,10.64031441,10.872923,0.14260274,0.182196394,9.76923747,9.76923747,0.070535569,0.135739242,34.28574141,35.45011549,9.725370377,20,18,98,76,1.314074935,1
620.0078122,9.966276296,10.04719117,10.6594522,10.87209886,0.143721202,0.181672977,9.785171476,9.785171476,0.070494188,0.135726223,34.28394003,35.44614818,9.726277711,20,18,98,76,1.314074935,1
621.0078122,9.967037327,10.05017502,10.68052757,10.85702104,0.145242135,0.181634885,9.79458384,9.79458384,0.07044464,0.135709015,34.28203019,35.44202077,9.726277711,20,18,98,76,1.314074935,1
622.0078122,9.967443981,10.04843045,10.6860893,10.83146426,0.146194148,0.182133716,9.791343348,9.791343348,0.070397729,0.135693245,34.28019225,35.43806822,9.726277711,20,18,98,76,1.314074935,1
623.0078122,9.968082558,10.04377929,10.69110982,10.81385702,0.146152591,0.183113821,9.778577138,9.778577138,0.070352463,0.135674685,34.27840624,35.43411498,9.732637274,20,18,98,76,1.314074935,1
624.0078122,9.969414692,10.03806169,10.7238174,10.81310784,0.145356045,0.184387129,9.767806091,9.767806091,0.070298094,0.135657644,34.27656301,35.43010481,9.732637274,20,18,98,76,1.314074935,1
625.0078122,9.970751161,10.03340767,10.77647205,10.81687932,0.144565826,0.185688969,9.766348331,9.766348331,0.070253776,0.135644884,34.2746595,35.42615606,9.732637274,20,18,98,76,1.314074935,1
626.0078122,9.971340664,10.03254506,10.80903151,10.80412802,0.144437671,0.1868497,9.769502462,9.769502462,0.070209783,0.135631576,34.272802,35.42220879,9.745744293,20,18,98,76,1.314074935,1
627.0078122,9.971009283,10.03594339,10.79850043,10.77238218,0.14502026,0.187932403,9.76981854,9.76981854,0.070163512,0.135612984,34.2709446,35.41824423,9.745744293,20,18,98,76,1.314074935,1
628.0078122,9.969990454,10.04058568,10.76014114,10.74962052,0.146069204,0.189158308,9.768866893,9.768866893,0.070122102,0.135599124,34.26904663,35.41429792,9.745744293,20,18,98,76,1.314074935,1
629.0078122,9.969641332,10.04345758,10.72298454,10.76685395,0.147699845,0.190617748,9.772119219,9.772119219,0.070077222,0.135580285,34.26716387,35.41034324,9.76585247,20,18,98,76,1.314074935,1
630.0078122,9.971097626,10.04474285,10.69685984,10.82238197,0.150234506,0.192006281,9.779144226,9.779144226,0.070031304,0.135561932,34.26525606,35.40627795,9.76585247,20,18,98,76,1.314074935,1
631.0078122,9.972893111,10.04554055,10.66881858,10.88246946,0.153240598,0.192725183,9.787165727,9.787165727,0.069993054,0.135548295,34.26327525,35.4022311,9.76585247,20,18,98,76,1.314074935,1
632.0078122,9.973137576,10.04502131,10.63084404,10.91457073,0.155187748,0.192376811,9.795023317,9.795023317,0.069948685,0.135524019,34.26139323,35.39819786,9.792065023,20,18,98,76,1.314074935,1
633.0078122,9.972358636,10.04288155,10.60344957,10.9120261,0.154557461,0.191155774,9.798721197,9.798721197,0.069910572,0.135504323,34.25956542,35.39435891,9.792065023,20,18,98,76,1.314074935,1
634.0078122,9.971816993,10.04108112,10.61775552,10.88714904,0.151223007,0.189649876,9.793735749,9.793735749,0.0698719,0.135486647,34.25762175,35.39049237,9.792065023,20,18,98,76,1.314074935,1
635.0078122,9.971715014,10.04089255,10.67169192,10.85313413,0.146446161,0.188258004,9.783798098,9.783798098,0.069831276,0.135462471,34.25565844,35.38655202,9.822393558,20,18,98,76,1.314074935,1
636.0078122,9.971499517,10.0412688,10.72132976,10.82157337,0.141640546,0.186873535,9.776906654,9.776906654,0.069792875,0.13544748,34.25367625,35.3826482,9.822393558,20,18,98,76,1.314074935,1
637.0078122,9.970531234,10.04083371,10.72672274,10.80434442,0.137554026,0.185163832,9.774266828,9.774266828,0.069752517,0.135428972,34.2517098,35.37869731,9.822393558,20,18,98,76,1.314074935,1
638.0078122,9.969145631,10.03957757,10.69476092,10.80324948,0.134451486,0.183105622,9.771488452,9.771488452,0.069715663,0.135407143,34.24978161,35.37475141,9.822393558,20,18,98,76,1.314074935,1
639.0078122,9.968440616,10.03858958,10.66044031,10.80838854,0.132632341,0.181264752,9.766420777,9.766420777,0.069679723,0.135388815,34.24766875,35.37083475,9.85397183,20,18,98,76,1.314074935,1
640.0078122,9.968928595,10.03877718,10.64252573,10.81838455,0.132487942,0.180576094,9.762033721,9.762033721,0.069635395,0.135370156,34.24555322,35.36685377,9.85397183,20,18,98,76,1.314074935,1
641.0078122,9.970436071,10.03998699,10.64123874,10.84912416,0.134151844,0.181838719,9.763827388,9.763827388,0.069599815,0.1353473,34.24346484,35.36287673,9.883395415,20,18,97,76,1.314074935,1
642.0078122,9.972406725,10.04175694,10.65803292,10.90776674,0.137235965,0.185335765,9.77334543,9.77334543,0.069570926,0.135326596,34.24136187,35.35896932,9.883395415,20,18,97,76,1.314074935,1
643.0078122,9.97386273,10.04422457,10.68969255,10.96437206,0.140995295,0.190801427,9.785631025,9.785631025,0.069540057,0.135304941,34.23920077,35.35496837,9.883395415,20,18,97,76,1.314074935,1
644.0078122,9.974005653,10.04729959,10.71578548,10.9709325,0.144784302,0.197573499,9.795627818,9.795627818,0.069515489,0.135280738,34.2369458,35.35097378,9.907145555,20,18,97,76,1.314074935,1
645.0078122,9.972892432,10.05040302,10.7157665,10.92413071,0.148286837,0.204624747,9.801422222,9.801422222,0.069488658,0.135262269,34.23471812,35.34687585,9.907145555,20,18,97,76,1.314074935,1
646.0078122,9.971403786,10.05311175,10.69378985,10.87687563,0.151243381,0.210524568,9.800650193,9.800650193,0.06945662,0.135237149,34.23255204,35.34277226,9.907145555,20,18,97,76,1.314074935,1
647.0078122,9.970537451,10.05398513,10.67226023,10.85955273,0.153097373,0.213742862,9.792590166,9.792590166,0.069432051,0.135217977,34.23029857,35.33877261,9.92204333,20,18,97,76,1.314074935,1
648.0078122,9.970297035,10.05078801,10.67119935,10.84799327,0.153172411,0.2133655,9.78146088,9.78146088,0.06940671,0.135191048,34.22802271,35.33476007,9.92204333,20,18,97,76,1.314074935,1
649.0078122,9.969944489,10.04438796,10.69754298,10.83235309,0.151336866,0.209644499,9.771464162,9.771464162,0.069379345,0.135168981,34.22571607,35.33055069,9.92204333,20,18,97,76,1.314074935,1
650.0078122,9.969839963,10.03936061,10.73671572,10.84342664,0.148434837,0.203838334,9.763295514,9.763295514,0.069358197,0.135143154,34.22333326,35.32646526,9.925668674,20,18,97,76,1.314074935,1
651.0078122,9.970900689,10.03842034,10.76507086,10.89716034,0.14595422,0.197623803,9.757665223,9.757665223,0.069336697,0.135119165,34.2209632,35.32218722,9.925668674,20,18,97,76,1.314074935,1
652.0078122,9.972340625,10.04008329,10.77595936,10.96683562,0.14510436,0.192604734,9.75718767,9.75718767,0.069314449,0.135090184,34.21863037,35.31805291,9.925668674,20,18,97,76,1.314074935,1
653.0078122,9.973016428,10.04277269,10.77113087,11.01276361,0.146090498,0.190173485,9.763153275,9.763153275,0.069295607,0.135068541,34.21619162,35.31376457,9.925668674,20,18,97,76,1.314074935,1
654.0078122,9.973306802,10.04602579,10.74538574,11.01360105,0.148074626,0.191248996,9.773330941,9.773330941,0.069276227,0.13504439,34.21380569,35.30951137,9.916671016,20,18,98,77,1.314074935,1
655.0078122,9.973580089,10.04796795,10.70197992,10.97406157,0.149697177,0.195522496,9.783788413,9.783788413,0.069261661,0.13502361,34.21133098,35.30528672,9.916671016,20,18,98,77,1.314074935,1
656.0078122,9.97347904,10.04648818,10.65752453,10.92037561,0.14978423,0.20094659,9.790259705,9.790259705,0.069252225,0.13500345,34.20883494,35.30109244,9.916671016,20,18,98,77,1.314074935,1
657.0078122,9.972918896,10.0425898,10.62631666,10.88381187,0.147920025,0.204701687,9.78872984,9.78872984,0.069242993,0.134982071,34.20629891,35.29683937,9.894901112,20,18,98,77,1.314074935,1
658.0078122,9.972028509,10.03954869,10.61229405,10.87438861,0.14459656,0.205248657,9.779450327,9.779450327,0.069231542,0.134963594,34.20369748,35.29269613,9.894901112,20,18,98,77,1.314074935,1
659.0078122,9.970745763,10.03877946,10.60879463,10.87304232,0.140835935,0.20329329,9.768590828,9.768590828,0.069221082,0.134949753,34.20104323,35.28846586,9.894901112,20,18,98,77,1.314074935,1
660.0078122,9.968851758,10.03901017,10.60860198,10.85978538,0.137588163,0.20059322,9.762639517,9.762639517,0.069202365,0.134931768,34.19842417,35.28438695,9.861313218,20,18,98,77,1.314074935,1
661.0078122,9.966255295,10.03951524,10.61404634,10.84046278,0.135371973,0.198209487,9.764397468,9.764397468,0.069185673,0.134918109,34.19586501,35.28012918,9.861313218,20,18,98,77,1.314074935,1
662.0078122,9.963753863,10.04104868,10.62909229,10.83509613,0.134310645,0.196186022,9.773180071,9.773180071,0.069166693,0.13490192,34.19330634,35.27584039,9.861313218,20,18,98,77,1.314074935,1
663.0078122,9.962639573,10.04392573,10.65268008,10.85424949,0.134332427,0.1944551,9.784776601,9.784776601,0.069144985,0.134884353,34.19081361,35.2716326,9.81762568,20,18,98,77,1.314074935,1
664.0078122,9.963077682,10.04768388,10.68039095,10.88871201,0.135310622,0.193350983,9.792840464,9.792840464,0.069135071,0.134872818,34.1882459,35.26730782,9.81762568,20,18,98,77,1.314074935,1
665.0078122,9.964341832,10.05124436,10.69914193,10.90987715,0.137104732,0.193056133,9.792892176,9.792892176,0.069125326,0.134853767,34.18556503,35.26296627,9.765781697,20,18,98,77,1.314074935,1
666.0078122,9.965819633,10.05244359,10.69542842,10.89023143,0.139552335,0.193018794,9.784834559,9.784834559,0.069108828,0.134830336,34.18290022,35.25871898,9.765781697,20,18,98,77,1.314074935,1
667.0078122,9.966873858,10.04989113,10.67725292,10.83662661,0.142334249,0.192294023,9.772159083,9.772159083,0.069094715,0.134812932,34.18022422,35.25442344,9.765781697,20,18,98,77,1.314074935,1
668.0078122,9.967437157,10.04507297,10.66470805,10.7906366,0.144783552,0.190493641,9.76076345,9.76076345,0.069079537,0.134795381,34.1775402,35.25012543,9.707308759,20,18,98,77,1.314074935,1
669.0078122,9.968364824,10.04051403,10.66583029,10.78919562,0.145986794,0.188364428,9.755641504,9.755641504,0.069065597,0.134777606,34.17493486,35.24574873,9.707308759,20,18,98,77,1.314074935,1
670.0078122,9.970102494,10.03730134,10.68155138,10.83648607,0.14535026,0.187420249,9.756488057,9.756488057,0.069052833,0.134759559,34.17223426,35.24138492,9.707308759,20,18,98,77,1.314074935,1
671.0078122,9.97209719,10.03553453,10.7146507,10.9041835,0.143167281,0.188808723,9.759300284,9.759300284,0.069040615,0.134739215,34.16953545,35.23706891,9.642718777,20,18,98,77,1.314074935,1
672.0078122,9.973748884,10.03499225,10.76081515,10.94826825,0.140507403,0.192179499,9.761587999,9.761587999,0.069026458,0.134722584,34.16684122,35.23260792,9.642718777,20,18,98,77,1.314074935,1
673.0078122,9.974821151,10.03463882,10.8018893,10.94220535,0.13843968,0.195515154,9.76400534,9.76400534,0.069013659,0.13470603,34.16413174,35.2282482,9.642718777,20,18,98,77,1.314074935,1
674.0078122,9.975244247,10.03364586,10.81953001,10.90505648,0.137344585,0.196346975,9.766593892,9.766593892,0.068997821,0.134686615,34.16135774,35.22400418,9.571105875,20,18,98,77,1.314074935,1
675.0078122,9.974881637,10.03267014,10.80730645,10.87948333,0.136902923,0.193545373,9.766588004,9.766588004,0.06898216,0.134666081,34.15858456,35.21956425,9.571105875,20,18,98,77,1.314074935,1
676.0078122,9.973369283,10.03194068,10.77451526,10.8867848,0.136635636,0.188086485,9.764695688,9.764695688,0.068967336,0.134649437,34.15581383,35.2152861,9.571105875,20,18,98,77,1.314074935,1
677.0078122,9.970800694,10.03085003,10.7419443,10.9114054,0.136458041,0.182158746,9.767609692,9.767609692,0.068953352,0.134633088,34.15315334,35.21112827,9.571105875,20,18,98,77,1.314074935,1
678.0078122,9.968236218,10.03087366,10.72934602,10.92910522,0.136797354,0.177534641,9.77806709,9.77806709,0.0689435,0.134615224,34.15056334,35.20692297,9.490075998,20,17,98,77,1.314074935,1
679.0078122,9.966651002,10.03462331,10.73453026,10.93443333,0.138285102,0.174743942,9.789572712,9.789572712,0.068928781,0.134594555,34.14796105,35.20279762,9.490075998,20,17,98,77,1.314074935,1
680.0078122,9.96640099,10.04142004,10.72654187,10.93155933,0.141402969,0.17346126,9.793597033,9.793597033,0.068910354,0.134577914,34.14521436,35.19859803,9.396082727,19,17,98,77,1.314074935,1
681.0078122,9.967345077,10.04717248,10.68273361,10.92075203,0.146283933,0.173300194,9.786507997,9.786507997,0.068890177,0.134555854,34.1426501,35.19442436,9.396082727,19,17,98,77,1.314074935,1
682.0078122,9.968516619,10.04895849,10.62161516,10.90865064,0.152493848,0.174134016,9.771638222,9.771638222,0.068874433,0.134533621,34.13997725,35.19025988,9.396082727,19,17,98,77,1.314074935,1
683.0078122,9.968794419,10.04781576,10.56887165,10.90359212,0.158803094,0.175893612,9.757444851,9.757444851,0.068853469,0.134514246,34.13724072,35.18611933,9.285158163,19,17,98,77,1.314074935,1
684.0078122,9.968098134,10.04652519,10.52623947,10.89787422,0.163413408,0.178336814,9.749858067,9.749858067,0.06883778,0.134495259,34.13452849,35.18203174,9.285158163,19,17,98,77,1.314074935,1
685.0078122,9.967178133,10.04626713,10.49675489,10.88290628,0.164872953,0.181056675,9.746802533,9.746802533,0.068819876,0.134481185,34.13197796,35.17791738,9.285158163,19,17,98,77,1.314074935,1
686.0078122,9.966619779,10.04610859,10.49420349,10.8642165,0.163052034,0.18360497,9.743627766,9.743627766,0.068806068,0.134469578,34.12945749,35.17373708,9.153935104,19,17,98,77,1.314074935,1
687.0078122,9.966317639,10.0441001,10.5159317,10.84480278,0.159237985,0.185587179,9.740667365,9.740667365,0.068787967,0.134461719,34.12697772,35.16952867,9.153935104,19,17,98,77,1.314074935,1
688.0078122,9.965880372,10.03897366,10.5417953,10.82267205,0.155202041,0.186752479,9.741268689,9.741268689,0.068768154,0.134450414,34.12437586,35.16547128,9.153935104,19,17,98,77,1.314074935,1
689.0078122,9.965418436,10.03262863,10.56256054,10.80832369,0.152052063,0.187116432,9.745162937,9.745162937,0.068752854,0.134443204,34.1217822,35.1613816,9.000778435,19,17,98,77,1.314074935,1
690.0078122,9.965521944,10.02925095,10.58805468,10.81895121,0.149876098,0.187003557,9.748895231,9.748895231,0.068738702,0.13445789,34.11930264,35.15737805,9.000778435,19,17,98,77,1.314074935,1
691.0078122,9.966738015,10.03070069,10.62944449,10.85396634,0.14825788,0.186921815,9.751574073,9.751574073,0.068735435,0.134461518,34.11674824,35.15348415,9.000778435,19,17,98,77,1.314074935,1
692.0078122,9.969241449,10.03500912,10.68426139,10.88833195,0.147022296,0.187308008,9.754532409,9.754532409,0.068722438,0.134472064,34.11408308,35.14958744,9.000778435,19,17,98,77,1.314074935,1
693.0078122,9.972087809,10.03914222,10.73617135,10.89504577,0.146332949,0.188338454,9.7564445,9.7564445,0.068711231,0.134480746,34.1114798,35.145579,8.826798316,19,17,98,77,1.314074935,1
694.0078122,9.973193921,10.04187892,10.76761794,10.87280747,0.146124159,0.189908744,9.754525488,9.754525488,0.068699557,0.134499581,34.10895107,35.14164828,8.826798316,19,17,98,77,1.314074935,1
695.0078122,9.971512719,10.04334096,10.77015106,10.83695159,0.145759759,0.191735135,9.750122867,9.750122867,0.068690512,0.134529456,34.10642246,35.13776632,8.826798316,19,17,98,77,1.314074935,1
696.0078122,9.968431231,10.04253096,10.74292917,10.7915368,0.144560551,0.193486661,9.748967458,9.748967458,0.068679379,0.134577616,34.10386333,35.13390554,8.636517418,19,16,98,77,1.314074935,1
697.0078122,9.966079825,10.03904596,10.69273918,10.73938808,0.142648914,0.194897843,9.75490714,9.75490714,0.068619985,0.134632928,34.10123261,35.13003507,8.636517418,19,16,98,77,1.314074935,1
698.0078122,9.965566908,10.03607332,10.63660033,10.70048816,0.141052225,0.195842052,9.765114804,9.765114804,0.068563146,0.134689651,34.09854603,35.12611369,8.636517418,19,16,98,77,1.314074935,1
699.0078122,9.966558872,10.03651088,10.59716529,10.69404461,0.14085589,0.19636352,9.774397379,9.774397379,0.068518634,0.134751715,34.09601587,35.12231631,8.438011792,19,16,98,77,1.314074935,1
700.0078122,9.967639949,10.03870063,10.59345981,10.71907062,0.142259823,0.196649559,9.781976219,9.781976219,0.068479037,0.134820922,34.0935486,35.11863401,8.438011792,19,16,98,77,1.314074935,1
701.0078122,9.967979102,10.03945992,10.62937912,10.75728959,0.144467246,0.196872894,9.788791862,9.788791862,0.068435817,0.134895955,34.09087951,35.11493142,8.438011792,19,16,98,77,1.314074935,1
702.0078122,9.967999337,10.03778501,10.68445587,10.78873255,0.146448761,0.196943027,9.794538275,9.794538275,0.068392188,0.134974114,34.08825721,35.1111199,8.242433122,19,16,98,77,1.314074935,1
703.0078122,9.968017635,10.03578678,10.72344513,10.80606497,0.147744857,0.196471609,9.802247676,9.802247676,0.068345087,0.135062287,34.08566278,35.10743856,8.242433122,19,16,98,77,1.314074935,1
704.0078122,9.967628274,10.03739617,10.71649523,10.80873295,0.148513716,0.195163951,9.813662053,9.813662053,0.068301248,0.13516214,34.08300927,35.1038148,8.242433122,19,16,98,77,1.314074935,1
705.0078122,9.966608554,10.04274081,10.65718123,10.79519305,0.149070852,0.193271107,9.818150403,9.818150403,0.06826334,0.13526183,34.08038706,35.10011482,8.242433122,19,16,98,77,1.314074935,1
706.0078122,9.965466301,10.04600188,10.57711804,10.77545664,0.14966964,0.191485497,9.803510393,9.803510393,0.068221103,0.135369972,34.07775093,35.09650388,8.242433122,19,16,98,77,1.314074935,1
707.0078122,9.964615246,10.04333139,10.5289928,10.77549604,0.15072404,0.190308662,9.776534447,9.776534447,0.068173674,0.135488692,34.07506093,35.09286502,8.062933513,19,15,98,77,1.314074935,1
708.0078122,9.963787856,10.03885746,10.54024219,10.81434575,0.152821855,0.189642352,9.75597324,9.75597324,0.068130712,0.135609991,34.07237685,35.0891505,8.062933513,19,15,98,77,1.314074935,1
709.0078122,9.962558793,10.03892967,10.59074672,10.88152917,0.156130933,0.189103421,9.750749159,9.750749159,0.068083519,0.135740089,34.06969238,35.0857279,8.062933513,19,15,98,77,1.314074935,1
710.0078122,9.960979751,10.04382997,10.64181133,10.9426162,0.15983437,0.188628428,9.756706845,9.756706845,0.068034726,0.135867075,34.06696419,35.08201285,8.062933513,19,15,98,77,1.314074935,1
711.0078122,9.959709857,10.04809016,10.67447328,10.97076093,0.162440228,0.188577509,9.768204077,9.768204077,0.067985247,0.136004656,34.0643775,35.07845561,7.913131209,19,15,98,77,1.314074935,1
712.0078122,9.959097878,10.04670476,10.69018234,10.96751298,0.162766032,0.18923374,9.787348626,9.787348626,0.067934628,0.136146789,34.0616715,35.07494875,7.913131209,19,15,98,77,1.314074935,1
713.0078122,9.958599088,10.03917677,10.69344983,10.94914584,0.160637623,0.190401298,9.820919568,9.820919568,0.067887324,0.136295613,34.05891341,35.07144309,7.913131209,19,15,98,77,1.314074935,1
714.0078122,9.95824631,10.02955118,10.68924577,10.92857136,0.156920158,0.191685975,9.865326461,9.865326461,0.067835482,0.136446784,34.05619802,35.06780029,7.805352956,19,15,98,77,1.314074935,1
715.0078122,9.959094318,10.02282822,10.68644225,10.91423954,0.15330649,0.19312751,9.900419935,9.900419935,0.067782937,0.136597928,34.05349619,35.06429462,7.805352956,19,15,98,77,1.314074935,1
716.0078122,9.961523563,10.02096237,10.69054414,10.91349534,0.152024373,0.195296134,9.906488241,9.906488241,0.067731871,0.136745947,34.05080291,35.06061517,7.805352956,19,15,98,77,1.314074935,1
717.0078122,9.964504295,10.02317314,10.6921759,10.93459748,0.15505137,0.19849938,9.888730191,9.888730191,0.067678392,0.136898298,34.04815079,35.05697719,7.748944878,19,15,98,77,1.314074935,1
718.0078122,9.966200611,10.02836676,10.67124446,10.9784265,0.162570682,0.20190895,9.880689687,9.880689687,0.067622222,0.137052446,34.04553467,35.05332154,7.748944878,19,15,98,77,1.314074935,1
719.0078122,9.965616327,10.03648326,10.61978743,11.02125422,0.171821211,0.203690794,9.906964731,9.906964731,0.067573726,0.13720383,34.04287426,35.04978464,7.748944878,19,15,98,77,1.314074935,1
720.0078122,9.963993807,10.04704878,10.55753781,11.03002328,0.178049443,0.202252209,9.939091383,9.939091383,0.067526961,0.137353348,34.04021391,35.04605212,13.18408255,23,22,95,80,1.872932081,2
721.0078122,9.963736978,10.05552459,10.51574312,11.00605545,0.177602392,0.197493562,9.924203321,9.924203321,0.067481901,0.137507034,34.03736974,35.04241455,13.18408255,23,22,95,80,1.872932081,2
722.0078122,9.96590513,10.05545416,10.5064234,10.97933024,0.170523809,0.19096447,9.860785807,9.860785807,0.067439343,0.137657993,34.03447328,35.03882238,13.18408255,23,22,95,80,1.872932081,2
723.0078122,9.969217808,10.04697896,10.52408745,10.96686322,0.160241452,0.184970321,9.800834446,9.800834446,0.067394755,0.137813881,34.03161981,35.03516745,13.19220339,23,22,95,80,1.872932081,2
724.0078122,9.971911952,10.03742785,10.57221214,10.97035976,0.151160703,0.181490702,9.790353061,9.790353061,0.067351396,0.137961182,34.02878058,35.03157317,13.19220339,23,22,95,80,1.872932081,2
725.0078122,9.973470272,10.03264058,10.6582363,10.99062853,0.146651153,0.181519212,9.837699499,9.837699499,0.067305903,0.138110562,34.02592828,35.02798766,13.20660377,23,22,95,80,1.872932081,2
726.0078122,9.974201579,10.03450172,10.76917648,11.03323113,0.148362909,0.184861405,9.909157181,9.909157181,0.067265198,0.13824805,34.02314983,35.02444356,13.20660377,23,22,95,80,1.872932081,2
727.0078122,9.975353151,10.04583859,10.8801792,11.11649693,0.156154324,0.190281217,9.95038121,9.95038121,0.067225483,0.138386163,34.02035516,35.02074574,13.20660377,23,22,95,80,1.872932081,2
728.0078122,9.979305282,10.06972629,10.98149372,11.26195144,0.168062605,0.195969326,9.941983426,9.941983426,0.067192824,0.138517724,34.01752583,35.01713808,13.22379306,23,22,95,80,1.872932081,2
729.0078122,9.986565837,10.10116371,11.08447238,11.46558688,0.180674008,0.200302115,9.919213466,9.919213466,0.067159592,0.138665931,34.01459145,35.01361332,13.22379306,23,22,95,80,1.872932081,2
730.0078122,9.993623923,10.12469201,11.20465652,11.68479214,0.190187885,0.202544581,9.929881499,9.929881499,0.067133602,0.138815414,34.01156678,35.01005902,13.23899595,23,22,95,80,1.872932081,2
731.0078122,9.996733475,10.12753133,11.34194007,11.86382577,0.194268333,0.203152625,10.00273391,10.00273391,0.067108855,0.138959856,34.00851753,35.00634392,13.23899595,23,22,95,80,1.872932081,2
732.0078122,9.996342468,10.11323561,11.47737521,11.9778314,0.19336138,0.203273124,10.13671228,10.13671228,0.067085078,0.13909477,34.00542312,35.00273463,13.23899595,23,22,95,80,1.872932081,2
733.0078122,9.995756373,10.09564742,11.58935264,12.03925937,0.190258585,0.203849149,10.27670309,10.27670309,0.067064826,0.139228269,34.00223344,34.9991699,13.24665406,23,23,95,80,1.872932081,2
734.0078122,9.996620992,10.08399954,11.66503035,12.06152823,0.187929554,0.205133877,10.32711277,10.32711277,0.067048117,0.139361929,33.99906291,34.99553867,13.24665406,23,23,95,80,1.872932081,2
735.0078122,9.997675409,10.08063289,11.69454948,12.04682646,0.187329323,0.206934314,10.24030883,10.24030883,0.067034854,0.139493038,33.99577492,34.99201451,13.24101623,24,23,95,81,1.872932081,2
736.0078122,9.997375297,10.08538569,11.67649287,12.0059444,0.187071101,0.209081873,10.07293212,10.07293212,0.067030632,0.139623345,33.99254318,34.98851482,13.24101623,24,23,95,81,1.872932081,2
737.0078122,9.995766563,10.09427252,11.63608805,11.95973977,0.185182314,0.211487665,9.920000182,9.920000182,0.067029987,0.13975116,33.98924009,34.98479411,13.2167614,24,23,95,81,1.872932081,2
738.0078122,9.993517833,10.09986091,11.60895688,11.92295265,0.181208845,0.213774705,9.825991106,9.825991106,0.067024529,0.139875991,33.98573965,34.98104321,13.2167614,24,23,95,81,1.872932081,2
739.0078122,9.991054146,10.09841898,11.60763889,11.90243966,0.176683847,0.21507089,9.78340773,9.78340773,0.067026689,0.140008758,33.98227526,34.97727095,13.2167614,24,23,95,81,1.872932081,2
740.0078122,9.989385713,10.09355258,11.6260386,11.90965557,0.173786131,0.214398785,9.771439057,9.771439057,0.067037589,0.140144769,33.97875833,34.97348137,13.16959531,24,23,95,81,1.872932081,2
741.0078122,9.989371478,10.09133186,11.6529489,11.95122121,0.173782715,0.211421866,9.771550524,9.771550524,0.067042326,0.140280441,33.9752249,34.96971099,13.16959531,24,23,95,81,1.872932081,2
742.0078122,9.990570002,10.09395334,11.67147714,12.00182744,0.176510385,0.206859435,9.77188973,9.77188973,0.067057691,0.140415746,33.97172031,34.96600671,13.16959531,24,23,95,81,1.872932081,2
743.0078122,9.992470063,10.09914613,11.67138782,12.0236498,0.180664413,0.202214479,9.770810799,9.770810799,0.067072478,0.140553911,33.96819154,34.9623168,13.09676349,24,23,95,81,1.872932081,2
744.0078122,9.994993254,10.10448414,11.65436039,12.01368214,0.184323897,0.19897694,9.772162615,9.772162615,0.06709129,0.140690189,33.96472066,34.95877413,13.09676349,24,23,95,81,1.872932081,2
745.0078122,9.997795424,10.10939063,11.61969071,11.99617824,0.185692687,0.197969591,9.7785467,9.7785467,0.067115802,0.140830753,33.96113318,34.95502235,13.09676349,24,23,95,81,1.872932081,2
746.0078122,9.999941353,10.11366083,11.57710077,11.98800774,0.183944946,0.19922827,9.789226449,9.789226449,0.0671329,0.140970654,33.95749374,34.951324,12.99742855,24,23,95,81,1.872932081,2
747.0078122,10.00001466,10.11633906,11.56792148,11.99171125,0.179617171,0.20224856,9.800091366,9.800091366,0.067157902,0.141110073,33.95367929,34.94773068,12.99742855,24,23,95,81,1.872932081,2
748.0078122,9.997648246,10.11544943,11.62440944,12.00264074,0.174207269,0.206206699,9.805531538,9.805531538,0.067186229,0.141255868,33.95012767,34.94403844,12.87286963,24,23,95,82,1.872932081,2
749.0078122,9.994591691,10.10959957,11.72152495,12.02633531,0.169343127,0.210097937,9.802864459,9.802864459,0.067212041,0.14140098,33.9465616,34.94041863,12.87286963,24,23,95,82,1.872932081,2
750.0078122,9.993108147,10.10096538,11.80593962,12.08093437,0.166182301,0.213031666,9.796000443,9.796000443,0.067237875,0.141541794,33.94295443,34.93665061,12.87286963,24,23,95,82,1.872932081,2
751.0078122,9.993841305,10.09502313,11.85350812,12.15292877,0.16536561,0.21470671,9.79380181,9.79380181,0.067260002,0.141706341,33.93931945,34.93283531,12.72647787,24,23,95,82,1.872932081,2
752.0078122,9.995126871,10.09581349,11.87429796,12.18020295,0.167324408,0.215711359,9.802219956,9.802219956,0.067293559,0.141876787,33.93569922,34.9290917,12.72647787,24,23,95,82,1.872932081,2
753.0078122,9.994245019,10.10204474,11.86351059,12.12017988,0.172476267,0.217305802,9.818132568,9.818132568,0.067337399,0.142054661,33.932062,34.92539898,12.56354186,24,23,95,82,1.872932081,2
754.0078122,9.990216679,10.10951567,11.78541588,12.00262197,0.18094784,0.220704026,9.832982027,9.832982027,0.067372681,0.142236992,33.92842072,34.92152568,12.56354186,24,23,95,82,1.872932081,2
755.0078122,9.984854331,10.11605835,11.6382553,11.88662579,0.191976728,0.226248271,9.841077011,9.841077011,0.06741076,0.142415585,33.92478492,34.91788329,12.56354186,24,23,95,82,1.872932081,2
756.0078122,9.981090824,10.12091821,11.48762732,11.79686581,0.20345165,0.232966752,9.841266013,9.841266013,0.067448073,0.142595789,33.92116294,34.91426672,12.39084209,24,22,95,82,1.872932081,2
757.0078122,9.980894597,10.12227083,11.39301143,11.73284703,0.21240964,0.239028764,9.83607483,9.83607483,0.067499979,0.14277855,33.91768858,34.91065081,12.39084209,24,22,95,82,1.872932081,2
758.0078122,9.983635128,10.12085803,11.34585922,11.71114833,0.216360422,0.24293056,9.833558265,9.833558265,0.067603711,0.142969938,33.91413853,34.90705007,12.21609815,24,22,95,83,1.872932081,2
759.0078122,9.986626236,10.12176551,11.3159006,11.7410397,0.214617701,0.244531081,9.841095755,9.841095755,0.067655428,0.143162858,33.91086553,34.90344298,12.21609815,24,22,95,83,1.872932081,2
760.0078122,9.987806219,10.12557213,11.30984269,11.78222718,0.208651817,0.244938018,9.85587061,9.85587061,0.067696955,0.143367513,33.90748417,34.89979672,12.21609815,24,22,95,83,1.872932081,2
761.0078122,9.987311285,10.12507733,11.347962,11.79192742,0.201310016,0.245273186,9.867410416,9.867410416,0.067734377,0.14358092,33.90422603,34.89615666,12.0473325,24,22,95,83,1.872932081,2
762.0078122,9.986758177,10.11632007,11.42064586,11.78256365,0.195524492,0.24552103,9.867374797,9.867374797,0.067767486,0.143802643,33.90113978,34.89264236,12.0473325,24,22,95,83,1.872932081,2
763.0078122,9.987646416,10.10375699,11.49322342,11.78472623,0.19312396,0.244537508,9.856453932,9.856453932,0.067809843,0.144030398,33.89804856,34.88906978,11.89222554,23,22,95,83,1.872932081,2
764.0078122,9.990056501,10.09334503,11.53783503,11.80081843,0.19412568,0.241072723,9.843417303,9.843417303,0.067845551,0.144245074,33.89509984,34.88548363,11.89222554,23,22,95,83,1.872932081,2
765.0078122,9.992813027,10.08778596,11.54843587,11.82522769,0.196881765,0.234877529,9.836880942,9.836880942,0.067866391,0.144469622,33.8921626,34.88215785,11.75753347,23,22,96,83,1.872932081,2
766.0078122,9.994688794,10.08726157,11.53129746,11.85899053,0.199132184,0.227154979,9.839019411,9.839019411,0.06789577,0.144697609,33.88941672,34.87863041,11.75753347,23,22,96,83,1.872932081,2
767.0078122,9.995106733,10.0907667,11.4995724,11.89575617,0.199219461,0.220102725,9.844366477,9.844366477,0.067921053,0.144922415,33.88673999,34.8751003,11.75753347,23,22,96,83,1.872932081,2
768.0078122,9.994895449,10.09677881,11.47122125,11.92694562,0.19655481,0.215746466,9.842612789,9.842612789,0.067942563,0.145137495,33.88406078,34.87158761,11.64862489,23,21,96,84,1.872932081,2
769.0078122,9.995453243,10.101843,11.45229905,11.94417502,0.191352803,0.214736575,9.828314984,9.828314984,0.067966277,0.145358869,33.88143684,34.86809573,11.64862489,23,21,96,84,1.872932081,2
770.0078122,9.996261704,10.10101172,11.43770663,11.93371289,0.184412152,0.216041821,9.809137413,9.809137413,0.067987041,0.145571364,33.87909979,34.86471151,11.56916626,23,21,96,84,1.872932081,2
771.0078122,9.99570399,10.09515314,11.4294643,11.89227636,0.17705679,0.217764973,9.79864887,9.79864887,0.068005397,0.145791342,33.87693522,34.8613222,11.56916626,23,21,96,84,1.872932081,2
772.0078122,9.993793511,10.09291913,11.43512633,11.84163424,0.170817386,0.218489491,9.802492134,9.802492134,0.068024035,0.146011177,33.87479619,34.85779603,11.56916626,23,21,96,84,1.872932081,2
773.0078122,9.992077158,10.09943893,11.46035094,11.81965156,0.166790771,0.218033169,9.815929663,9.815929663,0.068035132,0.14622433,33.87275416,34.85435379,11.52095866,23,21,96,84,1.872932081,2
774.0078122,9.991863353,10.10959439,11.50533198,11.84882319,0.16520446,0.217155941,9.830232241,9.830232241,0.068052308,0.146430541,33.87072755,34.85100313,11.52095866,23,21,96,84,1.872932081,2
775.0078122,9.992984789,10.1158588,11.55893065,11.90876677,0.165554015,0.216722473,9.838002803,9.838002803,0.06806803,0.146636097,33.86892703,34.84776554,11.52095866,23,21,96,84,1.872932081,2
776.0078122,9.994359448,10.11650994,11.60240261,11.960966,0.167180205,0.217098149,9.835120337,9.835120337,0.068079156,0.146828934,33.86729045,34.84458001,11.50390607,23,21,96,84,1.872932081,2
777.0078122,9.995323932,10.11386258,11.62374426,11.99513992,0.169867374,0.218091471,9.821026278,9.821026278,0.068096416,0.147025887,33.86557973,34.84150361,11.50390607,23,21,96,84,1.872932081,2
778.0078122,9.995353556,10.10900095,11.62953439,12.02363834,0.17398214,0.21923575,9.800608931,9.800608931,0.068103454,0.147219852,33.86415536,34.83836326,11.50390607,23,21,96,84,1.872932081,2
779.0078122,9.99386961,10.10178961,11.64036095,12.0497015,0.179849478,0.220101932,9.783621686,9.783621686,0.068114144,0.14741239,33.86265202,34.83523436,11.51608501,23,21,96,84,1.872932081,2
780.0078122,9.991231853,10.09412404,11.66727518,12.06391201,0.186691078,0.220501481,9.777208387,9.777208387,0.068123512,0.14759088,33.86144039,34.83215224,11.51608501,23,21,96,84,1.872932081,2
781.0078122,9.988870773,10.08933992,11.69897813,12.05263673,0.192205504,0.22051822,9.780552557,9.780552557,0.068126456,0.147762831,33.86029112,34.82908987,11.51608501,23,21,96,84,1.872932081,2
782.0078122,9.988286133,10.08877917,11.71982995,12.00726336,0.193686798,0.220329934,9.787622307,9.787622307,0.068126154,0.147935258,33.85927134,34.82605062,11.55388944,23,21,96,84,1.872932081,2
783.0078122,9.989496053,10.09070298,11.71756404,11.94208883,0.189938165,0.219969244,9.792150613,9.792150613,0.068126778,0.148097453,33.85825796,34.82303776,11.55388944,23,21,96,84,1.872932081,2
784.0078122,9.990804201,10.09189473,11.68320518,11.89103718,0.182293461,0.219321503,9.790881968,9.790881968,0.068122398,0.148257468,33.85738189,34.82011557,11.61223838,23,21,96,84,1.872932081,2
785.0078122,9.991178747,10.09081962,11.64193726,11.87732524,0.173743028,0.218399868,9.784844678,9.784844678,0.068120494,0.148419902,33.85653109,34.81714188,11.61223838,23,21,96,84,1.872932081,2
786.0078122,9.991531528,10.08914212,11.64494931,11.89618755,0.167215483,0.217522783,9.779282846,9.779282846,0.068115344,0.148582636,33.85575953,34.81409966,11.61223838,23,21,96,84,1.872932081,2
787.0078122,9.992742343,10.08906,11.70148568,11.92292604,0.164500568,0.217081545,9.780565706,9.780565706,0.068106667,0.148736836,33.85506567,34.81116868,11.68485085,23,21,96,84,1.872932081,2
788.0078122,9.993829892,10.09046042,11.76930998,11.93472132,0.166080302,0.217110026,9.789781916,9.789781916,0.06810704,0.148877087,33.85449004,34.80825749,11.68485085,23,21,96,84,1.872932081,2
789.0078122,9.993276298,10.09202364,11.81428455,11.93077929,0.171167393,0.21716524,9.801223852,9.801223852,0.068096662,0.148997439,33.85394066,34.80534621,11.76460259,23,21,97,84,1.872932081,2
790.0078122,9.99152784,10.09410135,11.82988708,11.92646303,0.1776829,0.216733149,9.808114433,9.808114433,0.068089432,0.14910701,33.85349982,34.8023855,11.76460259,23,21,97,84,1.872932081,2
791.0078122,9.990624512,10.09773636,11.81223301,11.92684037,0.18275273,0.215805101,9.808155078,9.808155078,0.068083037,0.149216834,33.85307157,34.79954679,11.76460259,23,21,97,84,1.872932081,2
792.0078122,9.991415584,10.10100944,11.76531479,11.92169387,0.184064673,0.214999754,9.805928518,9.805928518,0.068077158,0.149323917,33.85265421,34.79676769,11.76460259,23,21,97,84,1.872932081,2
793.0078122,9.992728697,10.10025211,11.71618583,11.90108559,0.181232381,0.21499593,9.808220853,9.808220853,0.068069824,0.149429793,33.85232973,34.79385223,11.84397617,23,21,97,84,1.872932081,2
794.0078122,9.993689461,10.09435647,11.68943337,11.8604363,0.175912455,0.215799297,9.813576942,9.813576942,0.068060119,0.149530568,33.85200326,34.79100949,11.84397617,23,21,97,84,1.872932081,2
795.0078122,9.994760498,10.08569892,11.68255978,11.80863943,0.170550703,0.216639934,9.813585889,9.813585889,0.068053597,0.149634825,33.85179967,34.78810338,11.84397617,23,21,97,84,1.872932081,2
796.0078122,9.995854733,10.0787862,11.68372066,11.77818974,0.16698381,0.216641975,9.807074444,9.807074444,0.068054044,0.1497346,33.85145305,34.78519068,11.84397617,23,21,97,84,1.872932081,2
797.0078122,9.995637442,10.07772693,11.69816766,11.80340983,0.165749984,0.215621134,9.802446041,9.802446041,0.06804325,0.149830447,33.85113804,34.78233815,11.91559801,22,21,97,84,1.872932081,2
798.0078122,9.99339517,10.08374475,11.74018026,11.88756805,0.166252805,0.214263491,9.803052011,9.803052011,0.068042288,0.149916497,33.85102387,34.7794251,11.91559801,22,21,97,84,1.872932081,2
799.0078122,9.99047528,10.09533972,11.79254969,12.00533073,0.167336278,0.213608106,9.801164053,9.801164053,0.068042871,0.149994037,33.85067287,34.77669324,11.91559801,22,21,97,84,1.872932081,2
800.0078122,9.989063822,10.10806071,11.8001089,12.12317334,0.167937915,0.214332337,9.791657463,9.791657463,0.068036538,0.150060749,33.85043591,34.77394047,11.97282805,22,22,97,83,1.872932081,2
801.0078122,9.989567032,10.11532883,11.73829945,12.20497691,0.167637039,0.216326617,9.781115071,9.781115071,0.068041267,0.1501322,33.8501583,34.77116959,11.97282805,22,22,97,83,1.872932081,2
802.0078122,9.990305775,10.11462574,11.65799704,12.22031787,0.166939409,0.218665938,9.777191767,9.777191767,0.068044538,0.150199568,33.84977328,34.76823539,12.01033977,22,22,97,83,1.872932081,2
803.0078122,9.989711286,10.10925938,11.62498956,12.16900339,0.1671389,0.219928811,9.779680624,9.779680624,0.068040747,0.150263793,33.84950457,34.76537664,12.01033977,22,22,97,83,1.872932081,2
804.0078122,9.987718383,10.10287224,11.64551552,12.0974116,0.169752071,0.218910851,9.786132949,9.786132949,0.068038419,0.150328101,33.84906092,34.7624103,12.01033977,22,22,97,83,1.872932081,2
805.0078122,9.985849141,10.09778762,11.66940625,12.06619586,0.175739463,0.215526301,9.794680874,9.794680874,0.068035228,0.150388252,33.84861518,34.75947433,12.02461035,22,22,97,83,1.872932081,2
806.0078122,9.985851592,10.09548594,11.6503115,12.08670412,0.184733989,0.211168433,9.800167668,9.800167668,0.068036391,0.15044376,33.84814463,34.75659231,12.02461035,22,22,97,83,1.872932081,2
807.0078122,9.987479002,10.0950954,11.59645645,12.11737741,0.194509544,0.207989265,9.798458462,9.798458462,0.068043068,0.150498757,33.84774513,34.75364605,12.01424163,22,22,98,82,1.872932081,2
808.0078122,9.989202688,10.09456606,11.55508213,12.11697971,0.201429006,0.207558872,9.791974955,9.791974955,0.06805173,0.150549739,33.84724336,34.75067363,12.01424163,22,22,98,82,1.872932081,2
809.0078122,9.990686221,10.09384444,11.56224308,12.07504849,0.20233758,0.210018158,9.783884875,9.783884875,0.068069406,0.150602369,33.84666489,34.74765147,12.01424163,22,22,98,82,1.872932081,2
810.0078122,9.992462563,10.09529208,11.62224998,12.01411694,0.197058063,0.214158883,9.774658868,9.774658868,0.068084909,0.150653034,33.84607245,34.74463282,11.98005314,22,22,98,82,1.872932081,2
811.0078122,9.994147302,10.09998089,11.71102676,11.96747379,0.188803159,0.2181512,9.768546098,9.768546098,0.068092,0.150695906,33.84556805,34.74160504,11.98005314,22,22,98,82,1.872932081,2
812.0078122,9.994723119,10.10431361,11.78594452,11.94463283,0.181661086,0.220428246,9.772555875,9.772555875,0.068101757,0.150748291,33.84498147,34.73845688,11.92492464,22,22,98,81,1.872932081,2
813.0078122,9.993880243,10.10354901,11.80909924,11.93304388,0.177485253,0.220476257,9.785617005,9.785617005,0.068107591,0.15079549,33.84430242,34.73530728,11.92492464,22,22,98,81,1.872932081,2
814.0078122,9.992168316,10.09846385,11.78222431,11.92266118,0.175163192,0.219108465,9.797696014,9.797696014,0.068127667,0.150833829,33.84373316,34.73237789,11.92492464,22,22,98,81,1.872932081,2
815.0078122,9.990615946,10.0952243,11.74961677,11.90871885,0.17258947,0.217838044,9.800847612,9.800847612,0.068146401,0.15087102,33.84311045,34.72923223,11.85340782,22,22,98,81,1.872932081,2
816.0078122,9.990165654,10.09851135,11.74639473,11.88455842,0.169023058,0.217798609,9.794531347,9.794531347,0.068167696,0.150901682,33.84238299,34.72601058,11.85340782,22,22,98,81,1.872932081,2
817.0078122,9.991056297,10.10573882,11.76530205,11.85087921,0.165539611,0.219173987,9.782109471,9.782109471,0.068194157,0.150936334,33.84163676,34.72271544,11.85340782,22,22,98,81,1.872932081,2
818.0078122,9.992668456,10.1087515,11.77892073,11.82098972,0.163551105,0.221385175,9.767914449,9.767914449,0.068218732,0.150968852,33.84090101,34.71957655,11.77116359,22,22,98,80,1.872932081,2
819.0078122,9.993855418,10.10312079,11.76989429,11.80445107,0.163275974,0.223501494,9.755139142,9.755139142,0.068252474,0.151000392,33.83993554,34.71631128,11.77116359,22,22,98,80,1.872932081,2
820.0078122,9.994126321,10.09312801,11.74366538,11.79731678,0.163704154,0.224555799,9.744841287,9.744841287,0.068281341,0.151034734,33.8389215,34.71310929,11.68430491,22,22,98,80,1.872932081,2
821.0078122,9.994224088,10.08519735,11.72185158,11.79721967,0.163802127,0.223898888,9.738460817,9.738460817,0.06831023,0.151058205,33.83795385,34.70985195,11.68430491,22,22,98,80,1.872932081,2
822.0078122,9.995315177,10.0821283,11.72469922,11.81947236,0.163589873,0.221571235,9.739128715,9.739128715,0.068343139,0.151084344,33.83685843,34.70669767,11.68430491,22,22,98,80,1.872932081,2
823.0078122,9.997954483,10.08453112,11.75836715,11.88048999,0.164139622,0.218345644,9.749515976,9.749515976,0.068364963,0.151104662,33.83580819,34.7034134,11.5987318,22,22,98,79,1.872932081,2
824.0078122,10.00055248,10.09072337,11.81093645,11.96547479,0.166630574,0.215219419,9.769834508,9.769834508,0.068394119,0.151125467,33.83462946,34.70026651,11.5987318,22,22,98,79,1.872932081,2
825.0078122,9.999895631,10.09514571,11.86060003,12.03214495,0.17129432,0.212722528,9.796207988,9.796207988,0.068424246,0.151165826,33.83347317,34.69693815,11.5987318,22,22,98,79,1.872932081,2
826.0078122,9.995316175,10.09298726,11.89079331,12.05002692,0.177059955,0.210659506,9.81982664,9.81982664,0.068451297,0.15122264,33.8321368,34.69370486,11.51953594,22,22,98,79,1.872932081,2
827.0078122,9.990033195,10.08615862,11.89204678,12.02563119,0.182090894,0.208495572,9.831748254,9.831748254,0.068488183,0.151290408,33.83076114,34.69053903,11.51953594,22,22,98,79,1.872932081,2
828.0078122,9.987654147,10.08115192,11.85741939,11.98556412,0.184711766,0.206021984,9.83032629,9.83032629,0.068520749,0.151372445,33.82947153,34.68732337,11.51953594,22,22,98,79,1.872932081,2
829.0078122,9.989049764,10.08257572,11.79730463,11.95197618,0.184061436,0.203723943,9.820682392,9.820682392,0.068546018,0.151459506,33.82812824,34.68417882,11.45053404,22,22,98,79,1.872932081,2
830.0078122,9.992104513,10.09008335,11.75404329,11.94371629,0.180265243,0.202503192,9.807254998,9.807254998,0.068580515,0.151549078,33.82673321,34.68102533,11.45053404,22,22,98,79,1.872932081,2
831.0078122,9.994386543,10.09917343,11.76900985,11.96696757,0.174381266,0.20296871,9.7932574,9.7932574,0.068604693,0.151635471,33.8250571,34.67779446,11.45053404,22,22,98,79,1.872932081,2
832.0078122,9.995318365,10.10454847,11.82700873,11.99282155,0.168327019,0.204947088,9.786744396,9.786744396,0.068632713,0.151710782,33.82336755,34.67458655,11.39396681,22,22,98,78,1.872932081,2
833.0078122,9.995307679,10.10420685,11.86893011,11.98430269,0.164641893,0.207598622,9.79706384,9.79706384,0.068661406,0.151795926,33.82178281,34.67139832,11.39396681,22,22,98,78,1.872932081,2
834.0078122,9.995040664,10.1005254,11.86722497,11.94777761,0.165761343,0.209882219,9.824185202,9.824185202,0.068682276,0.151879441,33.82021606,34.66834734,11.35038093,22,21,98,78,1.872932081,2
835.0078122,9.99571916,10.09801057,11.85221928,11.92549504,0.172744552,0.210976237,9.858703314,9.858703314,0.06870276,0.151962729,33.81860743,34.66497895,11.35038093,22,21,98,78,1.872932081,2
836.0078122,9.998281595,10.1003731,11.85823677,11.94285542,0.18407007,0.210510215,9.889441611,9.889441611,0.06871884,0.152039052,33.8168356,34.66174781,11.35038093,22,21,98,78,1.872932081,2
837.0078122,10.0023871,10.10804624,11.87416573,11.9812839,0.195756528,0.208647169,9.904801331,9.904801331,0.068735489,0.15211172,33.81521227,34.65861455,11.31869518,22,21,98,78,1.872932081,2
838.0078122,10.00588203,10.11657857,11.86498558,11.99964606,0.203276058,0.205929937,9.89543608,9.89543608,0.068755973,0.15217903,33.81336447,34.65549664,11.31869518,22,21,98,78,1.872932081,2
839.0078122,10.00601513,10.11921107,11.82550278,11.97517843,0.203925024,0.203012848,9.864739116,9.864739116,0.068772096,0.152256716,33.81162213,34.65236816,11.29643993,22,21,98,78,1.872932081,2
840.0078122,10.00250857,10.11471926,11.78634812,11.92827784,0.197882035,0.200461877,9.828345465,9.828345465,0.068789103,0.152329331,33.80975001,34.64940823,11.29643993,22,21,98,78,1.872932081,2
841.0078122,9.997971948,10.10932933,11.77184251,11.90715581,0.187610202,0.198637343,9.799481924,9.799481924,0.068803374,0.152407604,33.80800237,34.64641111,11.29643993,22,21,98,78,1.872932081,2
842.0078122,9.995228903,10.10751053,11.77864482,11.93723738,0.176395981,0.19760041,9.781530324,9.781530324,0.0688185,0.152467291,33.80626282,34.64346599,11.28014768,22,21,98,78,1.872932081,2
843.0078122,9.995639402,10.10695696,11.79968443,11.99367768,0.16684619,0.197107802,9.771919183,9.771919183,0.068833852,0.152517305,33.8044192,34.64060512,11.28014768,22,21,98,78,1.872932081,2
844.0078122,9.998668869,10.10487172,11.84286761,12.03795294,0.160057237,0.196777542,9.766897303,9.766897303,0.06884309,0.152564096,33.80266156,34.63773902,11.28014768,22,21,98,78,1.872932081,2
845.0078122,10.00216399,10.10272422,11.91337207,12.06502321,0.155844783,0.196344253,9.765281168,9.765281168,0.068858021,0.152596079,33.80100318,34.63504698,11.26585979,22,21,98,78,1.872932081,2
846.0078122,10.00353457,10.10194914,11.99192568,12.09126802,0.153550011,0.195802523,9.769140607,9.769140607,0.068867491,0.152621875,33.79926912,34.63232343,11.26585979,22,21,98,78,1.872932081,2
847.0078122,10.00133497,10.10078226,12.04303148,12.11720584,0.152550256,0.195341663,9.77756182,9.77756182,0.068876505,0.152658344,33.79760513,34.62961273,11.26585979,22,21,98,78,1.872932081,2
848.0078122,9.996677615,10.0989383,12.04708265,12.13219272,0.152264137,0.195165738,9.784092784,9.784092784,0.068874104,0.152686317,33.79577653,34.62688851,11.24969994,22,21,98,78,1.872932081,2
849.0078122,9.992908541,10.10023301,12.02044106,12.13674179,0.152118454,0.195329315,9.784459134,9.784459134,0.068872179,0.152707585,33.79411765,34.62426834,11.24969994,22,21,98,78,1.872932081,2
850.0078122,9.992990576,10.10793034,11.99685375,12.13509905,0.151730024,0.195654599,9.780888704,9.780888704,0.068869664,0.152716567,33.79249224,34.62172988,11.22845012,22,21,98,78,1.872932081,2
851.0078122,9.996261374,10.11946755,11.98970574,12.12304434,0.151084871,0.195846166,9.777337381,9.777337381,0.068870189,0.152703947,33.79090508,34.61912362,11.22845012,22,21,98,78,1.872932081,2
852.0078122,9.998660342,10.12766435,11.98405521,12.09783957,0.150420182,0.195789754,9.77473097,9.77473097,0.068866675,0.152680331,33.7893606,34.6165761,11.22845012,22,21,98,78,1.872932081,2
853.0078122,9.998049313,10.1286295,11.96978336,12.06748991,0.149912541,0.195744164,9.772163369,9.772163369,0.068861791,0.152642147,33.78788542,34.61408814,11.20005453,22,21,98,78,1.872932081,2
854.0078122,9.997039614,10.1252981,11.96555278,12.04810952,0.149547566,0.196178178,9.772017505,9.772017505,0.068859402,0.152592145,33.78653516,34.61163133,11.20005453,22,21,98,78,1.872932081,2
855.0078122,9.998522435,10.12131994,11.9945386,12.05708582,0.149307745,0.197410219,9.779533326,9.779533326,0.068857913,0.152525431,33.78522784,34.60933306,11.20005453,22,21,98,78,1.872932081,2
856.0078122,10.00174218,10.11653883,12.04463401,12.1043048,0.149365858,0.199383214,9.794354342,9.794354342,0.068847939,0.152446434,33.7839153,34.60692974,11.16397525,22,21,98,79,1.872932081,2
857.0078122,10.00397756,10.10987819,12.07411726,12.17602311,0.149970239,0.201676031,9.808471009,9.808471009,0.068846599,0.152354252,33.78266361,34.6046672,11.16397525,22,21,98,79,1.872932081,2
858.0078122,10.00365841,10.10289459,12.05716369,12.22620823,0.151153063,0.203651694,9.816285516,9.816285516,0.068842151,0.152251359,33.78132673,34.60243866,11.12133511,22,21,98,79,1.872932081,2
859.0078122,10.00126271,10.09899678,12.00272363,12.21124257,0.15260254,0.204675822,9.819282629,9.819282629,0.068833451,0.152135873,33.78011957,34.60013254,11.12133511,22,21,98,79,1.872932081,2
860.0078122,9.998345893,10.10018736,11.93634987,12.14423551,0.153788208,0.204380507,9.818380454,9.818380454,0.068834867,0.152003435,33.77896457,34.59784452,11.12133511,22,21,98,79,1.872932081,2
861.0078122,9.996825339,10.10550932,11.88462713,12.08363098,0.154208221,0.202859702,9.810341357,9.810341357,0.068836462,0.151857071,33.77792565,34.5955421,11.07480928,22,21,98,79,1.872932081,2
862.0078122,9.997763776,10.11201494,11.86376242,12.05816882,0.15363607,0.200653762,9.793511156,9.793511156,0.068829783,0.15169477,33.77696538,34.59314852,11.07480928,22,21,98,79,1.872932081,2
863.0078122,9.999958791,10.11667604,11.87161951,12.04574567,0.1523047,0.198516718,9.77205166,9.77205166,0.068828724,0.151522585,33.77606675,34.59084253,11.07480928,22,21,98,79,1.872932081,2
864.0078122,10.00149178,10.11730144,11.89864529,12.02999308,0.150883519,0.197147418,9.755566281,9.755566281,0.068827497,0.151334844,33.7752482,34.58848041,11.02826515,22,21,98,79,1.872932081,2
865.0078122,10.00168469,10.11289165,11.9413177,12.02179497,0.15027517,0.19701903,9.75517927,9.75517927,0.068829301,0.151129453,33.7743874,34.58632526,11.02826515,22,21,98,79,1.872932081,2
866.0078122,10.00078723,10.10627311,11.99527147,12.02657155,0.151372225,0.198281542,9.774920232,9.774920232,0.068831187,0.150918128,33.77349405,34.58405632,11.02826515,22,21,98,79,1.872932081,2
867.0078122,9.999666138,10.104929,12.03764017,12.03658916,0.154750864,0.200712557,9.80539788,9.80539788,0.068832122,0.15069661,33.77271212,34.58186041,10.9861935,22,21,98,79,1.872932081,2
868.0078122,9.99939459,10.1145142,12.03501192,12.04572071,0.160217202,0.203750695,9.830416943,9.830416943,0.068831469,0.150465815,33.77186105,34.57956557,10.9861935,22,21,98,79,1.872932081,2
869.0078122,9.999913192,10.13016102,11.98602119,12.04929324,0.166504205,0.206609795,9.840661505,9.840661505,0.068837008,0.15022664,33.77111477,34.57730923,10.95301469,22,21,98,79,1.872932081,2
870.0078122,9.999889145,10.13798172,11.93266439,12.04323473,0.171657667,0.20848687,9.836270197,9.836270197,0.068836254,0.149975834,33.77037589,34.57504489,10.95301469,22,21,98,79,1.872932081,2
871.0078122,9.998209077,10.13063676,11.90230777,12.02698432,0.174102908,0.208898931,9.819878048,9.819878048,0.068842521,0.149722502,33.76961854,34.57284557,10.95301469,22,21,98,79,1.872932081,2
872.0078122,9.995172025,10.11576132,11.87226652,12.00094476,0.173562954,0.207977937,9.795568899,9.795568899,0.068852273,0.149465263,33.76887099,34.57059274,10.93237113,22,21,98,79,1.872932081,2
873.0078122,9.992291103,10.1034362,11.82220905,11.96834021,0.171008549,0.206386806,9.770697125,9.770697125,0.06885581,0.149202034,33.7679818,34.56831954,10.93237113,22,21,98,79,1.872932081,2
874.0078122,9.990898445,10.09463444,11.77524415,11.93747861,0.167765981,0.204825301,9.752713767,9.752713767,0.068864682,0.148950151,33.76696291,34.5659212,10.93237113,22,21,98,79,1.872932081,2
875.0078122,9.991307702,10.08745297,11.76112981,11.92222787,0.164651474,0.203553467,9.74603772,9.74603772,0.068870951,0.148704385,33.76588166,34.56346319,10.92652522,22,21,98,79,1.872932081,2
876.0078122,9.992407226,10.0822474,11.77532931,11.93668074,0.161857922,0.202377328,9.750600072,9.750600072,0.068875662,0.148458868,33.76482059,34.56112217,10.92652522,22,21,98,79,1.872932081,2
877.0078122,9.992864159,10.08030017,11.79330779,11.98491768,0.159418675,0.20102385,9.761079689,9.761079689,0.068889043,0.148222439,33.76381746,34.55869034,10.93596593,22,21,98,79,1.872932081,2
878.0078122,9.992528791,10.08226547,11.80294473,12.05430797,0.157663916,0.199553439,9.770976386,9.770976386,0.068893974,0.14799653,33.76251949,34.55631632,10.93596593,22,21,98,79,1.872932081,2
879.0078122,9.991399764,10.08737184,11.81218047,12.12623323,0.157135934,0.198432099,9.77857764,9.77857764,0.068902672,0.147773497,33.76134401,34.55380219,10.93596593,22,21,98,79,1.872932081,2
880.0078122,9.989515622,10.09408223,11.82715473,12.18684561,0.158082882,0.198133076,9.783948851,9.783948851,0.068911416,0.147562816,33.7601516,34.551192,10.95929073,22,21,97,79,1.872932081,2
881.0078122,9.98839301,10.10052289,11.83601472,12.21644287,0.160112943,0.198589499,9.78282197,9.78282197,0.068926636,0.147350637,33.75879939,34.54863417,10.95929073,22,21,97,79,1.872932081,2
882.0078122,9.989295094,10.10266941,11.8220166,12.1942581,0.162343784,0.199158164,9.773110712,9.773110712,0.068940956,0.147149024,33.75728927,34.54593063,10.95929073,22,21,97,79,1.872932081,2
883.0078122,9.991406013,10.09739672,11.78628085,12.12840046,0.16385076,0.199327976,9.761613015,9.761613015,0.068960554,0.146963437,33.75581499,34.54331508,10.99337913,22,21,97,79,1.872932081,2
884.0078122,9.993633423,10.08904396,11.75364308,12.05597173,0.164098808,0.199505629,9.756469584,9.756469584,0.068985291,0.146790704,33.75406867,34.54065638,10.99337913,22,21,97,79,1.872932081,2
885.0078122,9.99552357,10.08598177,11.74943506,12.00828363,0.163181569,0.200987294,9.759541273,9.759541273,0.069005209,0.146614991,33.75234833,34.53799497,10.99337913,22,21,97,79,1.872932081,2
886.0078122,9.996845697,10.09120286,11.77888487,11.99120995,0.161719204,0.204950672,9.768218653,9.768218653,0.069024195,0.146434241,33.75052877,34.53516753,11.03382122,22,21,97,79,1.872932081,2
887.0078122,9.998079313,10.10147266,11.83356182,11.99235135,0.160411319,0.211184042,9.780664623,9.780664623,0.069036094,0.146255335,33.74860033,34.53230402,11.03382122,22,21,97,79,1.872932081,2
888.0078122,9.999542596,10.11287742,11.893516,11.99077279,0.159578418,0.217741515,9.796602493,9.796602493,0.069051319,0.146091398,33.74655068,34.5295135,11.03382122,22,21,97,79,1.872932081,2
889.0078122,10.00036791,10.12287627,11.93499458,11.97524127,0.159112726,0.222092676,9.812222157,9.812222157,0.069070845,0.145941397,33.74444034,34.52667403,11.07552135,22,21,97,79,1.872932081,2
890.0078122,9.999981803,10.12925102,11.95789089,11.96505748,0.158781046,0.223079205,9.821712368,9.821712368,0.069089978,0.145802602,33.7422414,34.52379786,11.07552135,22,21,97,79,1.872932081,2
891.0078122,9.999176535,10.13096983,11.97953827,11.99053451,0.158457519,0.22164778,9.826454554,9.826454554,0.069107584,0.145687431,33.73994732,34.52092113,11.07552135,22,21,97,79,1.872932081,2
892.0078122,9.99866138,10.12861083,12.00306181,12.05679222,0.158020152,0.219571318,9.832105915,9.832105915,0.06912755,0.145587314,33.73759867,34.51810161,11.11337151,22,21,97,78,1.872932081,2
893.0078122,9.997948984,10.1225856,12.01746295,12.13597266,0.157236925,0.217679126,9.836330559,9.836330559,0.069148608,0.145509623,33.73511027,34.51522825,11.11337151,22,21,97,78,1.872932081,2
894.0078122,9.996646845,10.11383671,12.01332089,12.17345407,0.156043648,0.215571681,9.832351134,9.832351134,0.069169134,0.145441337,33.73252034,34.5121713,11.14288678,22,21,97,78,1.872932081,2
895.0078122,9.995595487,10.1054466,11.98349452,12.12508806,0.154955113,0.212769046,9.82311357,9.82311357,0.069181525,0.145394789,33.72986625,34.50917631,11.14288678,22,21,97,78,1.872932081,2
896.0078122,9.995820135,10.10008155,11.92832925,12.01354055,0.154940558,0.209600036,9.818709462,9.818709462,0.069205018,0.145361361,33.72713285,34.50613161,11.14288678,22,21,97,78,1.872932081,2
897.0078122,9.997011287,10.09731148,11.86614815,11.9086892,0.156660152,0.206860182,9.822078984,9.822078984,0.069215403,0.145339898,33.72427604,34.50292922,11.16071306,22,21,97,78,1.872932081,2
898.0078122,9.997557479,10.09531407,11.82077771,11.85034202,0.159804789,0.204952916,9.827345528,9.827345528,0.069226024,0.145323413,33.72138934,34.49978224,11.16071306,22,21,97,78,1.872932081,2
899.0078122,9.996583047,10.09359907,11.79671875,11.82491253,0.163274466,0.20362702,9.829351411,9.829351411,0.069237855,0.14530719,33.71859343,34.49671487,11.16494988,22,21,97,78,1.872932081,2
900.0078122,9.994990726,10.09305134,11.77496714,11.81158003,0.166002518,0.202451918,9.828324869,9.828324869,0.069241331,0.145294396,33.71560456,34.49353195,11.16494988,22,21,97,78,1.872932081,2
901.0078122,9.993840882,10.09445242,11.73789768,11.82386004,0.167519113,0.201345778,9.827107516,9.827107516,0.069250275,0.145293092,33.71261114,34.4903862,11.16494988,22,21,97,78,1.872932081,2
902.0078122,9.993609017,10.09678296,11.69380104,11.88166636,0.167719543,0.200625542,9.827607302,9.827607302,0.06925876,0.145282919,33.70965069,34.48728083,11.15526813,22,21,97,78,1.872932081,2
903.0078122,9.99450622,10.09680858,11.6654197,11.95816572,0.166440234,0.200591379,9.830092516,9.830092516,0.069263202,0.145292026,33.70670032,34.4840218,11.15526813,22,21,97,78,1.872932081,2
904.0078122,9.995951797,10.09320772,11.66280594,12.00058559,0.163558977,0.201093372,9.832628215,9.832628215,0.069269134,0.145303436,33.70367734,34.48087656,11.15526813,22,21,97,78,1.872932081,2
905.0078122,9.99711954,10.09004958,11.68443369,12.00036736,0.159513376,0.201505083,9.830671272,9.830671272,0.069268031,0.145321951,33.70062967,34.47770097,11.13283589,22,21,97,78,1.872932081,2
906.0078122,9.998026489,10.0919628,11.73186306,12.00276644,0.155439797,0.201167957,9.822406696,9.822406696,0.069261201,0.145331598,33.69762729,34.47458408,11.13283589,22,21,97,78,1.872932081,2
907.0078122,9.998972851,10.09809956,11.80560454,12.0459032,0.152600124,0.199912424,9.8126067,9.8126067,0.069261055,0.145334037,33.69456357,34.47152906,11.13283589,22,21,97,78,1.872932081,2
908.0078122,9.999733516,10.10358593,11.8966478,12.11726655,0.151636308,0.198195751,9.805516406,9.805516406,0.06925783,0.14532864,33.69162267,34.46853164,11.10008887,22,21,97,78,1.872932081,2
909.0078122,9.999860277,10.10467323,11.99141611,12.17653302,0.152343634,0.196787685,9.798406137,9.798406137,0.069252973,0.145326571,33.68871726,34.46548964,11.10008887,22,21,97,78,1.872932081,2
910.0078122,9.999549944,10.10181572,12.07378168,12.20560372,0.154013125,0.196296552,9.787404011,9.787404011,0.069249212,0.14533186,33.68585385,34.46233477,11.10008887,22,21,97,78,1.872932081,2
911.0078122,9.999641853,10.09827656,12.12054738,12.216841,0.155862027,0.196854386,9.775369293,9.775369293,0.069235466,0.145345058,33.68303849,34.45933099,11.06039389,22,21,97,78,1.872932081,2
912.0078122,10.00023575,10.0967498,12.11390697,12.21829683,0.157316249,0.198113667,9.768531827,9.768531827,0.069226004,0.145346926,33.68027677,34.45604957,11.06039389,22,21,97,78,1.872932081,2
913.0078122,10.00015019,10.0977922,12.05975781,12.20226627,0.158378096,0.19950259,9.768156004,9.768156004,0.069218075,0.145348525,33.67757381,34.45289332,11.01765554,22,21,97,78,1.872932081,2
914.0078122,9.9985553,10.09946122,11.98083278,12.16918331,0.160010788,0.200547779,9.769815184,9.769815184,0.069202469,0.145332959,33.67485057,34.44981439,11.01765554,22,21,97,78,1.872932081,2
915.0078122,9.996284608,10.09952983,11.89808175,12.12902592,0.163810408,0.201077033,9.769234666,9.769234666,0.069186608,0.145319856,33.67220447,34.44664287,10.97591202,22,21,97,78,1.872932081,2
916.0078122,9.994460314,10.09851444,11.82339599,12.07496655,0.170714279,0.201283631,9.767266469,9.767266469,0.069167338,0.145301122,33.66969935,34.44351005,10.97591202,22,21,97,78,1.872932081,2
917.0078122,9.99293825,10.09736687,11.76400539,11.99059516,0.179759555,0.201595336,9.768594561,9.768594561,0.069153343,0.14527504,33.66721475,34.44046191,10.97591202,22,21,97,78,1.872932081,2
918.0078122,9.991503972,10.09477254,11.73288381,11.89321364,0.188243515,0.202355904,9.774033478,9.774033478,0.069137818,0.145241347,33.66486802,34.43741182,10.93895926,22,21,97,78,1.872932081,2
919.0078122,9.990683904,10.09018275,11.74724436,11.83544117,0.193432623,0.203531153,9.776738326,9.776738326,0.069123422,0.145205836,33.6626813,34.43436369,10.93895926,22,21,97,78,1.872932081,2
920.0078122,9.99057079,10.08616864,11.8031379,11.84888288,0.194540546,0.204773047,9.770077588,9.770077588,0.069106173,0.145167482,33.66054046,34.4313538,10.93895926,22,21,97,78,1.872932081,2
921.0078122,9.990944279,10.08546006,11.85645404,11.91230828,0.193297837,0.205829302,9.757717611,9.757717611,0.069083411,0.145123273,33.65839574,34.42842866,10.91003494,22,21,97,78,1.872932081,2
922.0078122,9.991992475,10.08757814,11.85733895,11.98108514,0.192520672,0.206807609,9.751717057,9.751717057,0.069068998,0.145075035,33.65625046,34.42554405,10.91003494,22,21,97,78,1.872932081,2
923.0078122,9.993842582,10.08950738,11.81149211,12.02521337,0.193943316,0.207954634,9.759657319,9.759657319,0.069053101,0.145021422,33.6542502,34.42264657,10.91003494,22,21,97,78,1.872932081,2
924.0078122,9.995898769,10.08914057,11.77108415,12.03436983,0.197225957,0.209270111,9.777069167,9.777069167,0.069034078,0.144958634,33.6523313,34.41975889,10.89158648,22,21,97,78,1.872932081,2
925.0078122,9.996701252,10.08706472,11.75760647,12.00946752,0.200619688,0.210454945,9.793611295,9.793611295,0.06901912,0.144896287,33.65057707,34.41686051,10.89158648,22,21,97,78,1.872932081,2
926.0078122,9.995666991,10.08543031,11.74587411,11.96514846,0.202262402,0.211175282,9.802474053,9.802474053,0.06900162,0.144830262,33.64895473,34.41400516,10.88513848,22,20,97,78,1.872932081,2
927.0078122,9.994403376,10.08629111,11.73315243,11.9271962,0.201202285,0.211277998,9.803561991,9.803561991,0.068979744,0.144762569,33.64734158,34.41104416,10.88513848,22,20,97,78,1.872932081,2
928.0078122,9.994313948,10.08970118,11.75879025,11.91090483,0.197842921,0.21079723,9.800358368,9.800358368,0.068961083,0.144695107,33.64585291,34.40834782,10.89126429,22,20,98,78,1.872932081,2
929.0078122,9.994765788,10.09308096,11.8354561,11.90704316,0.193676877,0.209900629,9.793775445,9.793775445,0.068929891,0.144623452,33.64442539,34.40556321,10.89126429,22,20,98,78,1.872932081,2
930.0078122,9.994806155,10.09407583,11.91217179,11.9007181,0.190404905,0.208887522,9.78113774,9.78113774,0.068907361,0.144542527,33.64303662,34.40276335,10.89126429,22,20,98,78,1.872932081,2
931.0078122,9.994650271,10.09278195,11.92448952,11.89422351,0.189029755,0.208206482,9.763289035,9.763289035,0.068892051,0.144456972,33.64163456,34.39999436,10.90965465,22,20,98,78,1.872932081,2
932.0078122,9.99474571,10.09001721,11.85921189,11.89441168,0.189393444,0.208346896,9.748197732,9.748197732,0.068868028,0.144358789,33.64038782,34.39731579,10.90965465,22,20,98,78,1.872932081,2
933.0078122,9.994759249,10.08590317,11.77056059,11.89274414,0.190335231,0.209550789,9.743305288,9.743305288,0.068851925,0.144265174,33.63927616,34.39462664,10.90965465,22,20,98,78,1.872932081,2
934.0078122,9.994338189,10.08158949,11.72708351,11.87985223,0.190375843,0.211561693,9.748432267,9.748432267,0.068830298,0.14417046,33.63836847,34.39197344,10.93926393,22,20,98,78,1.872932081,2
935.0078122,9.993809566,10.07973697,11.7316922,11.86336879,0.188448153,0.213721576,9.760898023,9.760898023,0.068805317,0.144073104,33.63738078,34.38945791,10.93926393,22,20,98,78,1.872932081,2
936.0078122,9.99374622,10.0819156,11.73170928,11.8595195,0.184284694,0.215390185,9.781814422,9.781814422,0.068785434,0.143977704,33.63657632,34.38682659,10.93926393,22,20,98,78,1.872932081,2
937.0078122,9.994391899,10.08738863,11.70422571,11.88024822,0.178548648,0.216329638,9.810597817,9.810597817,0.0687612,0.143874773,33.63559004,34.38424047,10.97850585,22,20,98,78,1.872932081,2
938.0078122,9.99476739,10.09436413,11.6767214,11.92463375,0.172689193,0.216838772,9.837434628,9.837434628,0.068736573,0.14378217,33.63486603,34.3816947,10.97850585,22,20,98,78,1.872932081,2
939.0078122,9.993425633,10.10078898,11.67385386,11.97218607,0.168280231,0.217651596,9.847323915,9.847323915,0.068718318,0.143686309,33.63408673,34.37924422,10.97850585,22,20,98,78,1.872932081,2
940.0078122,9.991134694,10.10456433,11.6849649,11.99384388,0.166165691,0.219549013,9.83352503,9.83352503,0.06868961,0.143588321,33.63319886,34.37689027,11.02546576,22,20,98,78,1.872932081,2
941.0078122,9.990178654,10.10430712,11.69010602,11.9853615,0.166104654,0.22276509,9.805375478,9.805375478,0.068665758,0.14349605,33.63252239,34.37449124,11.02546576,22,20,98,78,1.872932081,2
942.0078122,9.991106999,10.10076712,11.69238267,11.97288624,0.167030891,0.226634806,9.780260692,9.780260692,0.068641474,0.143409795,33.63191511,34.37211422,11.02546576,22,20,98,78,1.872932081,2
943.0078122,9.992763901,10.09689424,11.70005443,11.96640618,0.167536692,0.229928264,9.769729159,9.769729159,0.068609665,0.143313023,33.63117868,34.36984605,11.07809874,21,20,98,78,1.872932081,2
944.0078122,9.994111885,10.09458052,11.7070342,11.94349742,0.166563544,0.231601546,9.774756484,9.774756484,0.068579083,0.143223903,33.63059539,34.36749019,11.07809874,21,20,98,78,1.872932081,2
945.0078122,9.99469129,10.09265151,11.71347929,11.8935115,0.164139957,0.23135505,9.790415978,9.790415978,0.068551704,0.143129912,33.62998225,34.36503049,11.07809874,21,20,98,78,1.872932081,2
946.0078122,9.994492509,10.08969795,11.73130337,11.83722872,0.161489397,0.229602223,9.809758795,9.809758795,0.068521186,0.143040846,33.62940839,34.36282211,11.13439037,21,21,98,78,1.872932081,2
947.0078122,9.993605148,10.08635522,11.75983392,11.80040672,0.160168875,0.226904879,9.826232753,9.826232753,0.068495216,0.142958471,33.62890258,34.36060919,11.13439037,21,21,98,78,1.872932081,2
948.0078122,9.992232241,10.08376993,11.77669509,11.79131918,0.160987486,0.223415068,9.839210896,9.839210896,0.06846707,0.142876203,33.62836866,34.35851611,11.19246745,21,21,98,78,1.872932081,2
949.0078122,9.990961804,10.08223717,11.75882334,11.79843397,0.163671283,0.218990503,9.853945968,9.853945968,0.068435275,0.142794401,33.62772902,34.35623151,11.19246745,21,21,98,78,1.872932081,2
950.0078122,9.990199026,10.08147341,11.71005094,11.80927691,0.167315567,0.213943178,9.871348955,9.871348955,0.068408704,0.142715132,33.62713754,34.35397745,11.19246745,21,21,98,78,1.872932081,2
951.0078122,9.989985182,10.08112188,11.66454272,11.83337806,0.170963431,0.209486555,9.88151886,9.88151886,0.068376129,0.142628398,33.626651,34.35183787,11.25065809,21,21,98,78,1.872932081,2
952.0078122,9.990238465,10.08167015,11.65553611,11.88945453,0.173902217,0.207144682,9.874055509,9.874055509,0.068344363,0.142544303,33.62610227,34.3497421,11.25065809,21,21,98,78,1.872932081,2
953.0078122,9.99061055,10.08453573,11.67642403,11.96544087,0.175789899,0.207569995,9.853708431,9.853708431,0.068310894,0.14245696,33.62570548,34.34769784,11.25065809,21,21,98,78,1.872932081,2
954.0078122,9.990745402,10.08987917,11.68384927,12.01509215,0.176782404,0.209925135,9.83629586,9.83629586,0.068275767,0.142368352,33.62521922,34.34564532,11.30750994,21,21,98,78,1.872932081,2
955.0078122,9.990163537,10.0949264,11.64916752,12.00665052,0.177562838,0.212403188,9.829966209,9.829966209,0.068247082,0.14228832,33.62473684,34.34364759,11.30750994,21,21,98,78,1.872932081,2
956.0078122,9.988563989,10.09639353,11.59064221,11.95358979,0.179146188,0.213438091,9.830314671,9.830314671,0.068216554,0.14220688,33.62423499,34.34159035,11.30750994,21,21,98,78,1.872932081,2
957.0078122,9.986853667,10.09399721,11.54638819,11.89825036,0.182307076,0.212645848,9.832217717,9.832217717,0.068182552,0.142124036,33.62376713,34.33962119,11.36178146,21,21,98,78,1.872932081,2
958.0078122,9.986053679,10.09013984,11.53670646,11.88812267,0.186765271,0.210866336,9.836660238,9.836660238,0.068153656,0.142049519,33.62335389,34.33754082,11.36178146,21,21,98,78,1.872932081,2
959.0078122,9.986169731,10.08823503,11.55979315,11.94650859,0.190788178,0.209419786,9.845671982,9.845671982,0.068123134,0.14196892,33.62284819,34.33541415,11.36178146,21,21,98,78,1.872932081,2
960.0078122,9.986854771,10.09153993,11.60767451,12.03925214,0.191932372,0.209218566,9.857569515,9.857569515,0.068088143,0.141893689,33.62242725,34.33333342,11.41242286,21,21,98,78,1.872932081,2
961.0078122,9.98751485,10.09960563,11.67336624,12.09305207,0.188593699,0.210318711,9.866887127,9.866887127,0.068064455,0.141826301,33.62197473,34.33128931,11.41242286,21,21,98,78,1.872932081,2
962.0078122,9.988074556,10.10684599,11.74381541,12.06647738,0.181070571,0.212055984,9.866529797,9.866529797,0.06802849,0.141751035,33.62135556,34.32921973,11.41242286,21,21,98,78,1.872932081,2
963.0078122,9.989348951,10.10840536,11.80504241,11.99110854,0.171362066,0.213575978,9.852733029,9.852733029,0.06799839,0.141680167,33.62083259,34.32721657,11.45856098,21,21,98,78,1.872932081,2
964.0078122,9.990877925,10.1052596,11.85857117,11.93101707,0.162148086,0.214452787,9.829451093,9.829451093,0.067967685,0.141612465,33.62034085,34.32513497,11.45856098,21,21,98,78,1.872932081,2
965.0078122,9.991222612,10.1019917,11.91462939,11.91325872,0.155803709,0.214989499,9.806708702,9.806708702,0.067934713,0.141537921,33.61968198,34.32295546,11.45856098,21,21,98,78,1.872932081,2
966.0078122,9.990641659,10.10075961,11.96620844,11.91997062,0.15384389,0.215847324,9.793750838,9.793750838,0.067910512,0.141467765,33.61907418,34.32087817,11.49949685,21,21,98,78,1.872932081,2
967.0078122,9.990362903,10.09873233,11.98513085,11.93880632,0.156717965,0.217218215,9.793808884,9.793808884,0.067883991,0.14139442,33.61837158,34.31875552,11.49949685,21,21,98,78,1.872932081,2
968.0078122,9.99060699,10.09453188,11.95737608,11.98559181,0.163770369,0.218393803,9.802746755,9.802746755,0.067853869,0.141319578,33.61765989,34.31665084,11.49949685,21,21,98,78,1.872932081,2
969.0078122,9.990923364,10.09273066,11.90419433,12.07054156,0.173221335,0.218368976,9.811117332,9.811117332,0.067828792,0.141251048,33.61699066,34.31442876,11.53471746,21,21,98,78,1.872932081,2
970.0078122,9.991014198,10.09586804,11.85026121,12.16546761,0.182281819,0.216926068,9.8113493,9.8113493,0.067803426,0.141177947,33.61630094,34.31234455,11.53471746,21,21,98,78,1.872932081,2
971.0078122,9.991091152,10.10003785,11.80135686,12.22132317,0.187723889,0.214987974,9.804820935,9.804820935,0.067777501,0.141103527,33.61559157,34.3103566,11.56391572,21,21,98,79,1.872932081,2
972.0078122,9.991659127,10.10259936,11.76375519,12.22214892,0.187250463,0.21381339,9.800718968,9.800718968,0.067758158,0.14103359,33.61484108,34.30841496,11.56391572,21,21,98,79,1.872932081,2
973.0078122,9.992694062,10.10490309,11.74886235,12.19966177,0.181072761,0.213880003,9.806794492,9.806794492,0.067730121,0.140966097,33.61399873,34.30644648,11.56391572,21,21,98,79,1.872932081,2
974.0078122,9.993519488,10.10669345,11.75039685,12.17573967,0.172103818,0.214533054,9.820362932,9.820362932,0.067715296,0.140895432,33.61315113,34.30433031,11.58700612,21,21,98,79,1.872932081,2
975.0078122,9.993337978,10.10583988,11.74632016,12.13212663,0.164097337,0.214623151,9.830576259,9.830576259,0.067701398,0.140829775,33.61235079,34.30233665,11.58700612,21,21,98,79,1.872932081,2
976.0078122,9.991893191,10.10285812,11.72885706,12.05774642,0.159311105,0.213496092,9.831372193,9.831372193,0.067690822,0.140756782,33.61151314,34.30030654,11.58700612,21,21,98,79,1.872932081,2
